1.995979e+02,2.935258e+03
2.005621e+02,2.933223e+03
2.015264e+02,2.934664e+03
2.024906e+02,2.944866e+03
2.034548e+02,2.954095e+03
2.044191e+02,2.959037e+03
2.053833e+02,2.959577e+03
2.063475e+02,2.958000e+03
2.073118e+02,2.956850e+03
2.082760e+02,2.956552e+03
2.092402e+02,2.955413e+03
2.102045e+02,2.954632e+03
2.111687e+02,2.954358e+03
2.121329e+02,2.954156e+03
2.130972e+02,2.953094e+03
2.140614e+02,2.951160e+03
2.150256e+02,2.949538e+03
2.159899e+02,2.948319e+03
2.169541e+02,2.948162e+03
2.179183e+02,2.950432e+03
2.188826e+02,2.954220e+03
2.198468e+02,2.957335e+03
2.208110e+02,2.957847e+03
2.217753e+02,2.955448e+03
2.227395e+02,2.951838e+03
2.237037e+02,2.947658e+03
2.246680e+02,2.944165e+03
2.256322e+02,2.941995e+03
2.265964e+02,2.943005e+03
2.275607e+02,2.945345e+03
2.285249e+02,2.946556e+03
2.294891e+02,2.946417e+03
2.304534e+02,2.946624e+03
2.314176e+02,2.946915e+03
2.323818e+02,2.946778e+03
2.333461e+02,2.946453e+03
2.343103e+02,2.946032e+03
2.352745e+02,2.946198e+03
2.362388e+02,2.947806e+03
2.372030e+02,2.950864e+03
2.381672e+02,2.953241e+03
2.391315e+02,2.953026e+03
2.400957e+02,2.951947e+03
2.410599e+02,2.949423e+03
2.420242e+02,2.944087e+03
2.429884e+02,2.937651e+03
2.439526e+02,2.934163e+03
2.449169e+02,2.935739e+03
2.458811e+02,2.942608e+03
2.468453e+02,2.947828e+03
2.478096e+02,2.950795e+03
2.487738e+02,2.952746e+03
2.497380e+02,2.954172e+03
2.507023e+02,2.955269e+03
2.516665e+02,2.956481e+03
2.526307e+02,2.958308e+03
2.535950e+02,2.960626e+03
2.545592e+02,2.961085e+03
2.555234e+02,2.959735e+03
2.564877e+02,2.957351e+03
2.574519e+02,2.955169e+03
2.584161e+02,2.954433e+03
2.593804e+02,2.955310e+03
2.603446e+02,2.954990e+03
2.613088e+02,2.946493e+03
2.622731e+02,2.941268e+03
2.632373e+02,2.945398e+03
2.642015e+02,2.956829e+03
2.651658e+02,2.967290e+03
2.661300e+02,2.968567e+03
2.670942e+02,2.959760e+03
2.680585e+02,2.952373e+03
2.690227e+02,2.948389e+03
2.699869e+02,2.946205e+03
2.709512e+02,2.945012e+03
2.719154e+02,2.946402e+03
2.728796e+02,2.948416e+03
2.738439e+02,2.947391e+03
2.748081e+02,2.942848e+03
2.757723e+02,2.940290e+03
2.767366e+02,2.942319e+03
2.777008e+02,2.946473e+03
2.786650e+02,2.948584e+03
2.796293e+02,2.945815e+03
2.805935e+02,2.941681e+03
2.815577e+02,2.942520e+03
2.825220e+02,2.950684e+03
2.834862e+02,2.960720e+03
2.844504e+02,2.962928e+03
2.854147e+02,2.954042e+03
2.863789e+02,2.945302e+03
2.873431e+02,2.940407e+03
2.883074e+02,2.938969e+03
2.892716e+02,2.939298e+03
2.902358e+02,2.940148e+03
2.912001e+02,2.941146e+03
2.921643e+02,2.940444e+03
2.931285e+02,2.936999e+03
2.940928e+02,2.934225e+03
2.950570e+02,2.933268e+03
2.960212e+02,2.933632e+03
2.969855e+02,2.934245e+03
2.979497e+02,2.935078e+03
2.989139e+02,2.938365e+03
2.998782e+02,2.937855e+03
3.008424e+02,2.931546e+03
3.018066e+02,2.924483e+03
3.027709e+02,2.919474e+03
3.037351e+02,2.917290e+03
3.046993e+02,2.916345e+03
3.056636e+02,2.914326e+03
3.066278e+02,2.911156e+03
3.075920e+02,2.908545e+03
3.085563e+02,2.907033e+03
3.095205e+02,2.907118e+03
3.104847e+02,2.908796e+03
3.114490e+02,2.911413e+03
3.124132e+02,2.914512e+03
3.133774e+02,2.918650e+03
3.143417e+02,2.924679e+03
3.153059e+02,2.929098e+03
3.162701e+02,2.927554e+03
3.172344e+02,2.918518e+03
3.181986e+02,2.911315e+03
3.191628e+02,2.910288e+03
3.201271e+02,2.913212e+03
3.210913e+02,2.915475e+03
3.220555e+02,2.914566e+03
3.230198e+02,2.911013e+03
3.239840e+02,2.909798e+03
3.249482e+02,2.912974e+03
3.259125e+02,2.915911e+03
3.268767e+02,2.917343e+03
3.278409e+02,2.917480e+03
3.288052e+02,2.917042e+03
3.297694e+02,2.916442e+03
3.307336e+02,2.915535e+03
3.316979e+02,2.914876e+03
3.326621e+02,2.914890e+03
3.336263e+02,2.914230e+03
3.345906e+02,2.912241e+03
3.355548e+02,2.909567e+03
3.365190e+02,2.908000e+03
3.374833e+02,2.909335e+03
3.384475e+02,2.913634e+03
3.394117e+02,2.918014e+03
3.403760e+02,2.920794e+03
3.413402e+02,2.922153e+03
3.423044e+02,2.922823e+03
3.432687e+02,2.922077e+03
3.442329e+02,2.920890e+03
3.451971e+02,2.919965e+03
3.461614e+02,2.918555e+03
3.471256e+02,2.915115e+03
3.480898e+02,2.909125e+03
3.490541e+02,2.900322e+03
3.500183e+02,2.893249e+03
3.509825e+02,2.889050e+03
3.519468e+02,2.887271e+03
3.529110e+02,2.887539e+03
3.538752e+02,2.889129e+03
3.548395e+02,2.890488e+03
3.558037e+02,2.889412e+03
3.567679e+02,2.882992e+03
3.577322e+02,2.879237e+03
3.586964e+02,2.880573e+03
3.596606e+02,2.885455e+03
3.606249e+02,2.891537e+03
3.615891e+02,2.897275e+03
3.625533e+02,2.901352e+03
3.635176e+02,2.903403e+03
3.644818e+02,2.905330e+03
3.654460e+02,2.903811e+03
3.664103e+02,2.893745e+03
3.673745e+02,2.878490e+03
3.683387e+02,2.870912e+03
3.693030e+02,2.880910e+03
3.702672e+02,2.897649e+03
3.712314e+02,2.904165e+03
3.721957e+02,2.895779e+03
3.731599e+02,2.881110e+03
3.741241e+02,2.874430e+03
3.750884e+02,2.887406e+03
3.760526e+02,2.896574e+03
3.770168e+02,2.898140e+03
3.779811e+02,2.895035e+03
3.789453e+02,2.890637e+03
3.799095e+02,2.886340e+03
3.808738e+02,2.881492e+03
3.818380e+02,2.874161e+03
3.828022e+02,2.862026e+03
3.837665e+02,2.853274e+03
3.847307e+02,2.850523e+03
3.856949e+02,2.852308e+03
3.866592e+02,2.855077e+03
3.876234e+02,2.857326e+03
3.885876e+02,2.858861e+03
3.895519e+02,2.858960e+03
3.905161e+02,2.856577e+03
3.914803e+02,2.853633e+03
3.924446e+02,2.853394e+03
3.934088e+02,2.857870e+03
3.943730e+02,2.859784e+03
3.953373e+02,2.853858e+03
3.963015e+02,2.844756e+03
3.972657e+02,2.839650e+03
3.982300e+02,2.841705e+03
3.991942e+02,2.849104e+03
4.001584e+02,2.854460e+03
4.011227e+02,2.854646e+03
4.020869e+02,2.854013e+03
4.030511e+02,2.851398e+03
4.040154e+02,2.847410e+03
4.049796e+02,2.843854e+03
4.059438e+02,2.841970e+03
4.069081e+02,2.841171e+03
4.078723e+02,2.839273e+03
4.088365e+02,2.834471e+03
4.098008e+02,2.829633e+03
4.107650e+02,2.828259e+03
4.117292e+02,2.830365e+03
4.126935e+02,2.833688e+03
4.136577e+02,2.840087e+03
4.146219e+02,2.846462e+03
4.155862e+02,2.847387e+03
4.165504e+02,2.841386e+03
4.175146e+02,2.832630e+03
4.184789e+02,2.827551e+03
4.194431e+02,2.829822e+03
4.204073e+02,2.831358e+03
4.213716e+02,2.832582e+03
4.223358e+02,2.832767e+03
4.233000e+02,2.830554e+03
4.242643e+02,2.824914e+03
4.252285e+02,2.818481e+03
4.261927e+02,2.817925e+03
4.271570e+02,2.826708e+03
4.281212e+02,2.834281e+03
4.290854e+02,2.834557e+03
4.300497e+02,2.829739e+03
4.310139e+02,2.824928e+03
4.319781e+02,2.821575e+03
4.329424e+02,2.819726e+03
4.339066e+02,2.819812e+03
4.348708e+02,2.821542e+03
4.358351e+02,2.822344e+03
4.367993e+02,2.819636e+03
4.377635e+02,2.811426e+03
4.387278e+02,2.805344e+03
4.396920e+02,2.802890e+03
4.406563e+02,2.802168e+03
4.416205e+02,2.801982e+03
4.425847e+02,2.801831e+03
4.435490e+02,2.801087e+03
4.445132e+02,2.798198e+03
4.454774e+02,2.792438e+03
4.464417e+02,2.790375e+03
4.474059e+02,2.797294e+03
4.483701e+02,2.806454e+03
4.493344e+02,2.809900e+03
4.502986e+02,2.803292e+03
4.512628e+02,2.794856e+03
4.522271e+02,2.789860e+03
4.531913e+02,2.787842e+03
4.541555e+02,2.786694e+03
4.551198e+02,2.785185e+03
4.560840e+02,2.783456e+03
4.570482e+02,2.780792e+03
4.580125e+02,2.777388e+03
4.589767e+02,2.775281e+03
4.599409e+02,2.775142e+03
4.609052e+02,2.775637e+03
4.618694e+02,2.774512e+03
4.628336e+02,2.769286e+03
4.637979e+02,2.760711e+03
4.647621e+02,2.754213e+03
4.657263e+02,2.751056e+03
4.666906e+02,2.750947e+03
4.676548e+02,2.753138e+03
4.686190e+02,2.758490e+03
4.695833e+02,2.761310e+03
4.705475e+02,2.756395e+03
4.715117e+02,2.748302e+03
4.724760e+02,2.744945e+03
4.734402e+02,2.749534e+03
4.744044e+02,2.757664e+03
4.753687e+02,2.758202e+03
4.763329e+02,2.742886e+03
4.772971e+02,2.732866e+03
4.782614e+02,2.733990e+03
4.792256e+02,2.741095e+03
4.801898e+02,2.747652e+03
4.811541e+02,2.751174e+03
4.821183e+02,2.752009e+03
4.830825e+02,2.749543e+03
4.840468e+02,2.743293e+03
4.850110e+02,2.737727e+03
4.859752e+02,2.736057e+03
4.869395e+02,2.738440e+03
4.879037e+02,2.740858e+03
4.888679e+02,2.745865e+03
4.898322e+02,2.749447e+03
4.907964e+02,2.748893e+03
4.917606e+02,2.744700e+03
4.927249e+02,2.739578e+03
4.936891e+02,2.735617e+03
4.946533e+02,2.732749e+03
4.956176e+02,2.730772e+03
4.965818e+02,2.730366e+03
4.975460e+02,2.730523e+03
4.985103e+02,2.730308e+03
4.994745e+02,2.729398e+03
5.004387e+02,2.726727e+03
5.014030e+02,2.721097e+03
5.023672e+02,2.714457e+03
5.033314e+02,2.709406e+03
5.042957e+02,2.706548e+03
5.052599e+02,2.705406e+03
5.062241e+02,2.706027e+03
5.071884e+02,2.711903e+03
5.081526e+02,2.715295e+03
5.091168e+02,2.713677e+03
5.100811e+02,2.710630e+03
5.110453e+02,2.709934e+03
5.120095e+02,2.715069e+03
5.129738e+02,2.721529e+03
5.139380e+02,2.723051e+03
5.149022e+02,2.719796e+03
5.158665e+02,2.715910e+03
5.168307e+02,2.712583e+03
5.177949e+02,2.708469e+03
5.187592e+02,2.703207e+03
5.197234e+02,2.699668e+03
5.206876e+02,2.696544e+03
5.216519e+02,2.693143e+03
5.226161e+02,2.689782e+03
5.235803e+02,2.686979e+03
5.245446e+02,2.685003e+03
5.255088e+02,2.683788e+03
5.264730e+02,2.683377e+03
5.274373e+02,2.684616e+03
5.284015e+02,2.685129e+03
5.293657e+02,2.681399e+03
5.303300e+02,2.672920e+03
5.312942e+02,2.666156e+03
5.322584e+02,2.664571e+03
5.332227e+02,2.665888e+03
5.341869e+02,2.667656e+03
5.351511e+02,2.668826e+03
5.361154e+02,2.669054e+03
5.370796e+02,2.668274e+03
5.380438e+02,2.666646e+03
5.390081e+02,2.664907e+03
5.399723e+02,2.662297e+03
5.409365e+02,2.660660e+03
5.419008e+02,2.661168e+03
5.428650e+02,2.664190e+03
5.438292e+02,2.666949e+03
5.447935e+02,2.668286e+03
5.457577e+02,2.668436e+03
5.467219e+02,2.667904e+03
5.476862e+02,2.666965e+03
5.486504e+02,2.665457e+03
5.496146e+02,2.663227e+03
5.505789e+02,2.661008e+03
5.515431e+02,2.656505e+03
5.525073e+02,2.649492e+03
5.534716e+02,2.641816e+03
5.544358e+02,2.634700e+03
5.554000e+02,2.624219e+03
5.563643e+02,2.615839e+03
5.573285e+02,2.617446e+03
5.582927e+02,2.627456e+03
5.592570e+02,2.636520e+03
5.602212e+02,2.638769e+03
5.611854e+02,2.634071e+03
5.621497e+02,2.632912e+03
5.631139e+02,2.640135e+03
5.640781e+02,2.645124e+03
5.650424e+02,2.645419e+03
5.660066e+02,2.641717e+03
5.669708e+02,2.636370e+03
5.679351e+02,2.629913e+03
5.688993e+02,2.623382e+03
5.698635e+02,2.617793e+03
5.708278e+02,2.613331e+03
5.717920e+02,2.612082e+03
5.727562e+02,2.616240e+03
5.737205e+02,2.628541e+03
5.746847e+02,2.634465e+03
5.756489e+02,2.627797e+03
5.766132e+02,2.619725e+03
5.775774e+02,2.617404e+03
5.785416e+02,2.621611e+03
5.795059e+02,2.625940e+03
5.804701e+02,2.624978e+03
5.814343e+02,2.620101e+03
5.823986e+02,2.615533e+03
5.833628e+02,2.612038e+03
5.843270e+02,2.609708e+03
5.852913e+02,2.608365e+03
5.862555e+02,2.607027e+03
5.872197e+02,2.608424e+03
5.881840e+02,2.614611e+03
5.891482e+02,2.621726e+03
5.901124e+02,2.627432e+03
5.910767e+02,2.631351e+03
5.920409e+02,2.631965e+03
5.930051e+02,2.625045e+03
5.939694e+02,2.611954e+03
5.949336e+02,2.601677e+03
5.958978e+02,2.597071e+03
5.968621e+02,2.596761e+03
5.978263e+02,2.597737e+03
5.987905e+02,2.603755e+03
5.997548e+02,2.607361e+03
6.007190e+02,2.606767e+03
6.016832e+02,2.604422e+03
6.026475e+02,2.602548e+03
6.036117e+02,2.601253e+03
6.045759e+02,2.600476e+03
6.055402e+02,2.600844e+03
6.065044e+02,2.601754e+03
6.074686e+02,2.600827e+03
6.084329e+02,2.597146e+03
6.093971e+02,2.591665e+03
6.103613e+02,2.587837e+03
6.113256e+02,2.588709e+03
6.122898e+02,2.588255e+03
6.132540e+02,2.583828e+03
6.142183e+02,2.577481e+03
6.151825e+02,2.572946e+03
6.161467e+02,2.574340e+03
6.171110e+02,2.577895e+03
6.180752e+02,2.578788e+03
6.190394e+02,2.576884e+03
6.200037e+02,2.572727e+03
6.209679e+02,2.565650e+03
6.219321e+02,2.556363e+03
6.228964e+02,2.552458e+03
6.238606e+02,2.558993e+03
6.248248e+02,2.565309e+03
6.257891e+02,2.568534e+03
6.267533e+02,2.567980e+03
6.277175e+02,2.563888e+03
6.286818e+02,2.552851e+03
6.296460e+02,2.541714e+03
6.306102e+02,2.538571e+03
6.315745e+02,2.543206e+03
6.325387e+02,2.550314e+03
6.335029e+02,2.556077e+03
6.344672e+02,2.560160e+03
6.354314e+02,2.560849e+03
6.363956e+02,2.554883e+03
6.373599e+02,2.547866e+03
6.383241e+02,2.542798e+03
6.392883e+02,2.539925e+03
6.402526e+02,2.538544e+03
6.412168e+02,2.540727e+03
6.421810e+02,2.542713e+03
6.431453e+02,2.539190e+03
6.441095e+02,2.530787e+03
6.450737e+02,2.523967e+03
6.460380e+02,2.527685e+03
6.470022e+02,2.542917e+03
6.479664e+02,2.548748e+03
6.489307e+02,2.538822e+03
6.498949e+02,2.526873e+03
6.508591e+02,2.524760e+03
6.518234e+02,2.533192e+03
6.527876e+02,2.537538e+03
6.537518e+02,2.533620e+03
6.547161e+02,2.526721e+03
6.556803e+02,2.519633e+03
6.566445e+02,2.513269e+03
6.576088e+02,2.508795e+03
6.585730e+02,2.508483e+03
6.595372e+02,2.511434e+03
6.605015e+02,2.511991e+03
6.614657e+02,2.509016e+03
6.624299e+02,2.505472e+03
6.633942e+02,2.504202e+03
6.643584e+02,2.505829e+03
6.653226e+02,2.507918e+03
6.662869e+02,2.507999e+03
6.672511e+02,2.509592e+03
6.682153e+02,2.516969e+03
6.691796e+02,2.530041e+03
6.701438e+02,2.540264e+03
6.711080e+02,2.538165e+03
6.720723e+02,2.529514e+03
6.730365e+02,2.526941e+03
6.740007e+02,2.532972e+03
6.749650e+02,2.542345e+03
6.759292e+02,2.548049e+03
6.768934e+02,2.546591e+03
6.778577e+02,2.553046e+03
6.788219e+02,2.579409e+03
6.797861e+02,2.605986e+03
6.807504e+02,2.618201e+03
6.817146e+02,2.612742e+03
6.826788e+02,2.603189e+03
6.836431e+02,2.593332e+03
6.846073e+02,2.581468e+03
6.855715e+02,2.564906e+03
6.865358e+02,2.543989e+03
6.875000e+02,2.523991e+03
6.884642e+02,2.510767e+03
6.894285e+02,2.504391e+03
6.903927e+02,2.501045e+03
6.913569e+02,2.501121e+03
6.923212e+02,2.502126e+03
6.932854e+02,2.501769e+03
6.942496e+02,2.500520e+03
6.952139e+02,2.499059e+03
6.961781e+02,2.495581e+03
6.971423e+02,2.492489e+03
6.981066e+02,2.491298e+03
6.990708e+02,2.491380e+03
7.000350e+02,2.490719e+03
7.009993e+02,2.489629e+03
7.019635e+02,2.488392e+03
7.029277e+02,2.486051e+03
7.038920e+02,2.482216e+03
7.048562e+02,2.476855e+03
7.058204e+02,2.469930e+03
7.067847e+02,2.460914e+03
7.077489e+02,2.455817e+03
7.087131e+02,2.459137e+03
7.096774e+02,2.465020e+03
7.106416e+02,2.466543e+03
7.116058e+02,2.462084e+03
7.125701e+02,2.457842e+03
7.135343e+02,2.455872e+03
7.144985e+02,2.455474e+03
7.154628e+02,2.456321e+03
7.164270e+02,2.457852e+03
7.173912e+02,2.457969e+03
7.183555e+02,2.453189e+03
7.193197e+02,2.444699e+03
7.202839e+02,2.439350e+03
7.212482e+02,2.438702e+03
7.222124e+02,2.440185e+03
7.231766e+02,2.440866e+03
7.241409e+02,2.439929e+03
7.251051e+02,2.438461e+03
7.260693e+02,2.435159e+03
7.270336e+02,2.432108e+03
7.279978e+02,2.431121e+03
7.289620e+02,2.432317e+03
7.299263e+02,2.433970e+03
7.308905e+02,2.433408e+03
7.318547e+02,2.433517e+03
7.328190e+02,2.438359e+03
7.337832e+02,2.448126e+03
7.347474e+02,2.459454e+03
7.357117e+02,2.470357e+03
7.366759e+02,2.481151e+03
7.376401e+02,2.490378e+03
7.386044e+02,2.498566e+03
7.395686e+02,2.503844e+03
7.405328e+02,2.503091e+03
7.414971e+02,2.493452e+03
7.424613e+02,2.489282e+03
7.434255e+02,2.500991e+03
7.443898e+02,2.511111e+03
7.453540e+02,2.508962e+03
7.463182e+02,2.493808e+03
7.472825e+02,2.476235e+03
7.482467e+02,2.460456e+03
7.492109e+02,2.445483e+03
7.501752e+02,2.429685e+03
7.511394e+02,2.414638e+03
7.521036e+02,2.404557e+03
7.530679e+02,2.404344e+03
7.540321e+02,2.411590e+03
7.549963e+02,2.411856e+03
7.559606e+02,2.403416e+03
7.569248e+02,2.395999e+03
7.578890e+02,2.396631e+03
7.588533e+02,2.406194e+03
7.598175e+02,2.411811e+03
7.607817e+02,2.409085e+03
7.617460e+02,2.403044e+03
7.627102e+02,2.393122e+03
7.636744e+02,2.382603e+03
7.646387e+02,2.378279e+03
7.656029e+02,2.386980e+03
7.665671e+02,2.399518e+03
7.675314e+02,2.407514e+03
7.684956e+02,2.410455e+03
7.694598e+02,2.411923e+03
7.704241e+02,2.416365e+03
7.713883e+02,2.422393e+03
7.723525e+02,2.423048e+03
7.733168e+02,2.418327e+03
7.742810e+02,2.413497e+03
7.752452e+02,2.409435e+03
7.762095e+02,2.405336e+03
7.771737e+02,2.401347e+03
7.781379e+02,2.397991e+03
7.791022e+02,2.392150e+03
7.800664e+02,2.381953e+03
7.810306e+02,2.370366e+03
7.819949e+02,2.361922e+03
7.829591e+02,2.360676e+03
7.839233e+02,2.361316e+03
7.848876e+02,2.361986e+03
7.858518e+02,2.361861e+03
7.868160e+02,2.359379e+03
7.877803e+02,2.353104e+03
7.887445e+02,2.346572e+03
7.897087e+02,2.347204e+03
7.906730e+02,2.354521e+03
7.916372e+02,2.358770e+03
7.926014e+02,2.355342e+03
7.935657e+02,2.346327e+03
7.945299e+02,2.338777e+03
7.954941e+02,2.334268e+03
7.964584e+02,2.329747e+03
7.974226e+02,2.325831e+03
7.983868e+02,2.324754e+03
7.993511e+02,2.326594e+03
8.003153e+02,2.331921e+03
8.012795e+02,2.334680e+03
8.022438e+02,2.334075e+03
8.032080e+02,2.332280e+03
8.041722e+02,2.330281e+03
8.051365e+02,2.327854e+03
8.061007e+02,2.326860e+03
8.070649e+02,2.329831e+03
8.080292e+02,2.333985e+03
8.089934e+02,2.335555e+03
8.099576e+02,2.334614e+03
8.109219e+02,2.333014e+03
8.118861e+02,2.332086e+03
8.128503e+02,2.331817e+03
8.138146e+02,2.332960e+03
8.147788e+02,2.336386e+03
8.157430e+02,2.337305e+03
8.167073e+02,2.331203e+03
8.176715e+02,2.316983e+03
8.186357e+02,2.309453e+03
8.196000e+02,2.313370e+03
8.205642e+02,2.319334e+03
8.215284e+02,2.323780e+03
8.224927e+02,2.326290e+03
8.234569e+02,2.326031e+03
8.244211e+02,2.320837e+03
8.253854e+02,2.314687e+03
8.263496e+02,2.308029e+03
8.273138e+02,2.301357e+03
8.282781e+02,2.297138e+03
8.292423e+02,2.300255e+03
8.302065e+02,2.306414e+03
8.311708e+02,2.308489e+03
8.321350e+02,2.307071e+03
8.330992e+02,2.304931e+03
8.340635e+02,2.302698e+03
8.350277e+02,2.300680e+03
8.359919e+02,2.301355e+03
8.369562e+02,2.305782e+03
8.379204e+02,2.307547e+03
8.388846e+02,2.303629e+03
8.398489e+02,2.296403e+03
8.408131e+02,2.291617e+03
8.417773e+02,2.292598e+03
8.427416e+02,2.290456e+03
8.437058e+02,2.279250e+03
8.446700e+02,2.267172e+03
8.456343e+02,2.263493e+03
8.465985e+02,2.273280e+03
8.475627e+02,2.283202e+03
8.485270e+02,2.292160e+03
8.494912e+02,2.297273e+03
8.504554e+02,2.293855e+03
8.514197e+02,2.280849e+03
8.523839e+02,2.268683e+03
8.533481e+02,2.266725e+03
8.543124e+02,2.270594e+03
8.552766e+02,2.273153e+03
8.562408e+02,2.273110e+03
8.572051e+02,2.270938e+03
8.581693e+02,2.267062e+03
8.591335e+02,2.261961e+03
8.600978e+02,2.257577e+03
8.610620e+02,2.254352e+03
8.620262e+02,2.252053e+03
8.629905e+02,2.249660e+03
8.639547e+02,2.246233e+03
8.649189e+02,2.244909e+03
8.658832e+02,2.249376e+03
8.668474e+02,2.253189e+03
8.678116e+02,2.251728e+03
8.687759e+02,2.246187e+03
8.697401e+02,2.244520e+03
8.707043e+02,2.250388e+03
8.716686e+02,2.254358e+03
8.726328e+02,2.253015e+03
8.735970e+02,2.249231e+03
8.745613e+02,2.247567e+03
8.755255e+02,2.253498e+03
8.764897e+02,2.259112e+03
8.774540e+02,2.257065e+03
8.784182e+02,2.250556e+03
8.793824e+02,2.245278e+03
8.803467e+02,2.243300e+03
8.813109e+02,2.243247e+03
8.822751e+02,2.244832e+03
8.832394e+02,2.247805e+03
8.842036e+02,2.249603e+03
8.851678e+02,2.249004e+03
8.861321e+02,2.246453e+03
8.870963e+02,2.242851e+03
8.880605e+02,2.238018e+03
8.890248e+02,2.232402e+03
8.899890e+02,2.226637e+03
8.909532e+02,2.221581e+03
8.919175e+02,2.217373e+03
8.928817e+02,2.213716e+03
8.938459e+02,2.212072e+03
8.948102e+02,2.213533e+03
8.957744e+02,2.214700e+03
8.967386e+02,2.212865e+03
8.977029e+02,2.207774e+03
8.986671e+02,2.205959e+03
8.996313e+02,2.214411e+03
9.005956e+02,2.222147e+03
9.015598e+02,2.223829e+03
9.025240e+02,2.220396e+03
9.034883e+02,2.215805e+03
9.044525e+02,2.209329e+03
9.054167e+02,2.203090e+03
9.063810e+02,2.201142e+03
9.073452e+02,2.202388e+03
9.083094e+02,2.202546e+03
9.092737e+02,2.198270e+03
9.102379e+02,2.193137e+03
9.112021e+02,2.191606e+03
9.121664e+02,2.192491e+03
9.131306e+02,2.193935e+03
9.140948e+02,2.196288e+03
9.150591e+02,2.198553e+03
9.160233e+02,2.196985e+03
9.169875e+02,2.190978e+03
9.179518e+02,2.185515e+03
9.189160e+02,2.181537e+03
9.198802e+02,2.177375e+03
9.208445e+02,2.171013e+03
9.218087e+02,2.162273e+03
9.227729e+02,2.159830e+03
9.237372e+02,2.165863e+03
9.247014e+02,2.172051e+03
9.256656e+02,2.172612e+03
9.266299e+02,2.167081e+03
9.275941e+02,2.164530e+03
9.285583e+02,2.167017e+03
9.295226e+02,2.169074e+03
9.304868e+02,2.169462e+03
9.314510e+02,2.168565e+03
9.324153e+02,2.166487e+03
9.333795e+02,2.160422e+03
9.343438e+02,2.156240e+03
9.353080e+02,2.156388e+03
9.362722e+02,2.158028e+03
9.372365e+02,2.158141e+03
9.382007e+02,2.156901e+03
9.391649e+02,2.155544e+03
9.401292e+02,2.153675e+03
9.410934e+02,2.152099e+03
9.420576e+02,2.151024e+03
9.430219e+02,2.150246e+03
9.439861e+02,2.150662e+03
9.449503e+02,2.155379e+03
9.459146e+02,2.162416e+03
9.468788e+02,2.168422e+03
9.478430e+02,2.171466e+03
9.488073e+02,2.169839e+03
9.497715e+02,2.160038e+03
9.507357e+02,2.146692e+03
9.517000e+02,2.140814e+03
9.526642e+02,2.142611e+03
9.536284e+02,2.144462e+03
9.545927e+02,2.140663e+03
9.555569e+02,2.133113e+03
9.565211e+02,2.127625e+03
9.574854e+02,2.124883e+03
9.584496e+02,2.126018e+03
9.594138e+02,2.131223e+03
9.603781e+02,2.138192e+03
9.613423e+02,2.142991e+03
9.623065e+02,2.145880e+03
9.632708e+02,2.145723e+03
9.642350e+02,2.141902e+03
9.651992e+02,2.136771e+03
9.661635e+02,2.132581e+03
9.671277e+02,2.127972e+03
9.680919e+02,2.125956e+03
9.690562e+02,2.129061e+03
9.700204e+02,2.131729e+03
9.709846e+02,2.129839e+03
9.719489e+02,2.122572e+03
9.729131e+02,2.118556e+03
9.738773e+02,2.120998e+03
9.748416e+02,2.124459e+03
9.758058e+02,2.126538e+03
9.767700e+02,2.126585e+03
9.777343e+02,2.124840e+03
9.786985e+02,2.120217e+03
9.796627e+02,2.114496e+03
9.806270e+02,2.106440e+03
9.815912e+02,2.098452e+03
9.825554e+02,2.094796e+03
9.835197e+02,2.102352e+03
9.844839e+02,2.108083e+03
9.854481e+02,2.104394e+03
9.864124e+02,2.097519e+03
9.873766e+02,2.093739e+03
9.883408e+02,2.094892e+03
9.893051e+02,2.098274e+03
9.902693e+02,2.105170e+03
9.912335e+02,2.111906e+03
9.921978e+02,2.112468e+03
9.931620e+02,2.106406e+03
9.941262e+02,2.100217e+03
9.950905e+02,2.099579e+03
9.960547e+02,2.101137e+03
9.970189e+02,2.100575e+03
9.979832e+02,2.097981e+03
9.989474e+02,2.095287e+03
9.999116e+02,2.095165e+03
1.000876e+03,2.095461e+03
1.001840e+03,2.090985e+03
1.002804e+03,2.083991e+03
1.003769e+03,2.080747e+03
1.004733e+03,2.083271e+03
1.005697e+03,2.088064e+03
1.006661e+03,2.091166e+03
1.007625e+03,2.092727e+03
1.008590e+03,2.092620e+03
1.009554e+03,2.090327e+03
1.010518e+03,2.086069e+03
1.011482e+03,2.079416e+03
1.012447e+03,2.070979e+03
1.013411e+03,2.066585e+03
1.014375e+03,2.067669e+03
1.015339e+03,2.070434e+03
1.016304e+03,2.072036e+03
1.017268e+03,2.072230e+03
1.018232e+03,2.070291e+03
1.019196e+03,2.065622e+03
1.020161e+03,2.061079e+03
1.021125e+03,2.057909e+03
1.022089e+03,2.056827e+03
1.023053e+03,2.058753e+03
1.024017e+03,2.063765e+03
1.024982e+03,2.067516e+03
1.025946e+03,2.068851e+03
1.026910e+03,2.067680e+03
1.027874e+03,2.064627e+03
1.028839e+03,2.059669e+03
1.029803e+03,2.057414e+03
1.030767e+03,2.059139e+03
1.031731e+03,2.061566e+03
1.032696e+03,2.061693e+03
1.033660e+03,2.059134e+03
1.034624e+03,2.058780e+03
1.035588e+03,2.062735e+03
1.036552e+03,2.066739e+03
1.037517e+03,2.068971e+03
1.038481e+03,2.068967e+03
1.039445e+03,2.067113e+03
1.040409e+03,2.062276e+03
1.041374e+03,2.057676e+03
1.042338e+03,2.054753e+03
1.043302e+03,2.052671e+03
1.044266e+03,2.049598e+03
1.045231e+03,2.042171e+03
1.046195e+03,2.039343e+03
1.047159e+03,2.046310e+03
1.048123e+03,2.054274e+03
1.049088e+03,2.056688e+03
1.050052e+03,2.053133e+03
1.051016e+03,2.052863e+03
1.051980e+03,2.060796e+03
1.052944e+03,2.066460e+03
1.053909e+03,2.063322e+03
1.054873e+03,2.052953e+03
1.055837e+03,2.044985e+03
1.056801e+03,2.043803e+03
1.057766e+03,2.041743e+03
1.058730e+03,2.036427e+03
1.059694e+03,2.030361e+03
1.060658e+03,2.026262e+03
1.061623e+03,2.025350e+03
1.062587e+03,2.025619e+03
1.063551e+03,2.028038e+03
1.064515e+03,2.030865e+03
1.065479e+03,2.032572e+03
1.066444e+03,2.033413e+03
1.067408e+03,2.034057e+03
1.068372e+03,2.033837e+03
1.069336e+03,2.034163e+03
1.070301e+03,2.034473e+03
1.071265e+03,2.034602e+03
1.072229e+03,2.035672e+03
1.073193e+03,2.039990e+03
1.074158e+03,2.042652e+03
1.075122e+03,2.042185e+03
1.076086e+03,2.039552e+03
1.077050e+03,2.036183e+03
1.078015e+03,2.033016e+03
1.078979e+03,2.030744e+03
1.079943e+03,2.027388e+03
1.080907e+03,2.025939e+03
1.081871e+03,2.028965e+03
1.082836e+03,2.036092e+03
1.083800e+03,2.041265e+03
1.084764e+03,2.043609e+03
1.085728e+03,2.044424e+03
1.086693e+03,2.042272e+03
1.087657e+03,2.038650e+03
1.088621e+03,2.037733e+03
1.089585e+03,2.044064e+03
1.090550e+03,2.047659e+03
1.091514e+03,2.046378e+03
1.092478e+03,2.042573e+03
1.093442e+03,2.038217e+03
1.094406e+03,2.033554e+03
1.095371e+03,2.029107e+03
1.096335e+03,2.022813e+03
1.097299e+03,2.017759e+03
1.098263e+03,2.016472e+03
1.099228e+03,2.018642e+03
1.100192e+03,2.020624e+03
1.101156e+03,2.022261e+03
1.102120e+03,2.022688e+03
1.103085e+03,2.021326e+03
1.104049e+03,2.018821e+03
1.105013e+03,2.016428e+03
1.105977e+03,2.014917e+03
1.106942e+03,2.013126e+03
1.107906e+03,2.010846e+03
1.108870e+03,2.008447e+03
1.109834e+03,2.006021e+03
1.110798e+03,2.003350e+03
1.111763e+03,2.001727e+03
1.112727e+03,2.002673e+03
1.113691e+03,2.004003e+03
1.114655e+03,2.003620e+03
1.115620e+03,2.001971e+03
1.116584e+03,2.002651e+03
1.117548e+03,2.006627e+03
1.118512e+03,2.010397e+03
1.119477e+03,2.015790e+03
1.120441e+03,2.019824e+03
1.121405e+03,2.018155e+03
1.122369e+03,2.003776e+03
1.123333e+03,1.994567e+03
1.124298e+03,1.995179e+03
1.125262e+03,1.997592e+03
1.126226e+03,1.996082e+03
1.127190e+03,1.990174e+03
1.128155e+03,1.986074e+03
1.129119e+03,1.982703e+03
1.130083e+03,1.981705e+03
1.131047e+03,1.984359e+03
1.132012e+03,1.989199e+03
1.132976e+03,1.992933e+03
1.133940e+03,1.995229e+03
1.134904e+03,1.996842e+03
1.135869e+03,1.998457e+03
1.136833e+03,1.999997e+03
1.137797e+03,2.001395e+03
1.138761e+03,2.003667e+03
1.139725e+03,2.004496e+03
1.140690e+03,2.003662e+03
1.141654e+03,2.000795e+03
1.142618e+03,1.994535e+03
1.143582e+03,1.985852e+03
1.144547e+03,1.981809e+03
1.145511e+03,1.983600e+03
1.146475e+03,1.985392e+03
1.147439e+03,1.985740e+03
1.148404e+03,1.984859e+03
1.149368e+03,1.981646e+03
1.150332e+03,1.975353e+03
1.151296e+03,1.972560e+03
1.152260e+03,1.973702e+03
1.153225e+03,1.973907e+03
1.154189e+03,1.969612e+03
1.155153e+03,1.962375e+03
1.156117e+03,1.959357e+03
1.157082e+03,1.961293e+03
1.158046e+03,1.964194e+03
1.159010e+03,1.965988e+03
1.159974e+03,1.965993e+03
1.160939e+03,1.961245e+03
1.161903e+03,1.952421e+03
1.162867e+03,1.946957e+03
1.163831e+03,1.946336e+03
1.164796e+03,1.947820e+03
1.165760e+03,1.950182e+03
1.166724e+03,1.952895e+03
1.167688e+03,1.953697e+03
1.168652e+03,1.952655e+03
1.169617e+03,1.950554e+03
1.170581e+03,1.947356e+03
1.171545e+03,1.944604e+03
1.172509e+03,1.944796e+03
1.173474e+03,1.947167e+03
1.174438e+03,1.949474e+03
1.175402e+03,1.950729e+03
1.176366e+03,1.951692e+03
1.177331e+03,1.953890e+03
1.178295e+03,1.956125e+03
1.179259e+03,1.955579e+03
1.180223e+03,1.952347e+03
1.181188e+03,1.950452e+03
1.182152e+03,1.955744e+03
1.183116e+03,1.959979e+03
1.184080e+03,1.956392e+03
1.185044e+03,1.948673e+03
1.186009e+03,1.942778e+03
1.186973e+03,1.941445e+03
1.187937e+03,1.941541e+03
1.188901e+03,1.943197e+03
1.189866e+03,1.944247e+03
1.190830e+03,1.941225e+03
1.191794e+03,1.933355e+03
1.192758e+03,1.929173e+03
1.193723e+03,1.935023e+03
1.194687e+03,1.941427e+03
1.195651e+03,1.943212e+03
1.196615e+03,1.942469e+03
1.197579e+03,1.944768e+03
1.198544e+03,1.951589e+03
1.199508e+03,1.956582e+03
1.200472e+03,1.961090e+03
1.201436e+03,1.963821e+03
1.202401e+03,1.963276e+03
1.203365e+03,1.959195e+03
1.204329e+03,1.958129e+03
1.205293e+03,1.960225e+03
1.206258e+03,1.964681e+03
1.207222e+03,1.972385e+03
1.208186e+03,1.980652e+03
1.209150e+03,1.980871e+03
1.210115e+03,1.971565e+03
1.211079e+03,1.963233e+03
1.212043e+03,1.958227e+03
1.213007e+03,1.953561e+03
1.213971e+03,1.945241e+03
1.214936e+03,1.934912e+03
1.215900e+03,1.930837e+03
1.216864e+03,1.932793e+03
1.217828e+03,1.933299e+03
1.218793e+03,1.927034e+03
1.219757e+03,1.918512e+03
1.220721e+03,1.915450e+03
1.221685e+03,1.916478e+03
1.222650e+03,1.916882e+03
1.223614e+03,1.914725e+03
1.224578e+03,1.913207e+03
1.225542e+03,1.918549e+03
1.226506e+03,1.925105e+03
1.227471e+03,1.925672e+03
1.228435e+03,1.920186e+03
1.229399e+03,1.912535e+03
1.230363e+03,1.902947e+03
1.231328e+03,1.894570e+03
1.232292e+03,1.890473e+03
1.233256e+03,1.889355e+03
1.234220e+03,1.888448e+03
1.235185e+03,1.887435e+03
1.236149e+03,1.887529e+03
1.237113e+03,1.890482e+03
1.238077e+03,1.893737e+03
1.239042e+03,1.894188e+03
1.240006e+03,1.891471e+03
1.240970e+03,1.889703e+03
1.241934e+03,1.889118e+03
1.242898e+03,1.888982e+03
1.243863e+03,1.889939e+03
1.244827e+03,1.891406e+03
1.245791e+03,1.892916e+03
1.246755e+03,1.895239e+03
1.247720e+03,1.891583e+03
1.248684e+03,1.880133e+03
1.249648e+03,1.872572e+03
1.250612e+03,1.878012e+03
1.251577e+03,1.890985e+03
1.252541e+03,1.892840e+03
1.253505e+03,1.884921e+03
1.254469e+03,1.879373e+03
1.255433e+03,1.880128e+03
1.256398e+03,1.883910e+03
1.257362e+03,1.887429e+03
1.258326e+03,1.890058e+03
1.259290e+03,1.890535e+03
1.260255e+03,1.889066e+03
1.261219e+03,1.888213e+03
1.262183e+03,1.892924e+03
1.263147e+03,1.897661e+03
1.264112e+03,1.896111e+03
1.265076e+03,1.892239e+03
1.266040e+03,1.891886e+03
1.267004e+03,1.897730e+03
1.267969e+03,1.902967e+03
1.268933e+03,1.903672e+03
1.269897e+03,1.906434e+03
1.270861e+03,1.915699e+03
1.271825e+03,1.929120e+03
1.272790e+03,1.937344e+03
1.273754e+03,1.936831e+03
1.274718e+03,1.938746e+03
1.275682e+03,1.947986e+03
1.276647e+03,1.958783e+03
1.277611e+03,1.963170e+03
1.278575e+03,1.960241e+03
1.279539e+03,1.954733e+03
1.280504e+03,1.947057e+03
1.281468e+03,1.942295e+03
1.282432e+03,1.943735e+03
1.283396e+03,1.948484e+03
1.284360e+03,1.949635e+03
1.285325e+03,1.947332e+03
1.286289e+03,1.943635e+03
1.287253e+03,1.938876e+03
1.288217e+03,1.934058e+03
1.289182e+03,1.930809e+03
1.290146e+03,1.928243e+03
1.291110e+03,1.925771e+03
1.292074e+03,1.923340e+03
1.293039e+03,1.920204e+03
1.294003e+03,1.915638e+03
1.294967e+03,1.910008e+03
1.295931e+03,1.902330e+03
1.296896e+03,1.895430e+03
1.297860e+03,1.892320e+03
1.298824e+03,1.894101e+03
1.299788e+03,1.894699e+03
1.300752e+03,1.892782e+03
1.301717e+03,1.890576e+03
1.302681e+03,1.888384e+03
1.303645e+03,1.886882e+03
1.304609e+03,1.888885e+03
1.305574e+03,1.894625e+03
1.306538e+03,1.896889e+03
1.307502e+03,1.895464e+03
1.308466e+03,1.891832e+03
1.309431e+03,1.884174e+03
1.310395e+03,1.875255e+03
1.311359e+03,1.876675e+03
1.312323e+03,1.885386e+03
1.313287e+03,1.890267e+03
1.314252e+03,1.886073e+03
1.315216e+03,1.881101e+03
1.316180e+03,1.882975e+03
1.317144e+03,1.888097e+03
1.318109e+03,1.891990e+03
1.319073e+03,1.893289e+03
1.320037e+03,1.893026e+03
1.321001e+03,1.888579e+03
1.321966e+03,1.886246e+03
1.322930e+03,1.892011e+03
1.323894e+03,1.901710e+03
1.324858e+03,1.906528e+03
1.325823e+03,1.902630e+03
1.326787e+03,1.902358e+03
1.327751e+03,1.905654e+03
1.328715e+03,1.911558e+03
1.329679e+03,1.920175e+03
1.330644e+03,1.931124e+03
1.331608e+03,1.942394e+03
1.332572e+03,1.953854e+03
1.333536e+03,1.967365e+03
1.334501e+03,1.984002e+03
1.335465e+03,1.994916e+03
1.336429e+03,1.987570e+03
1.337393e+03,1.971315e+03
1.338358e+03,1.959001e+03
1.339322e+03,1.950670e+03
1.340286e+03,1.941824e+03
1.341250e+03,1.929192e+03
1.342214e+03,1.916752e+03
1.343179e+03,1.906981e+03
1.344143e+03,1.899750e+03
1.345107e+03,1.893948e+03
1.346071e+03,1.889204e+03
1.347036e+03,1.883717e+03
1.348000e+03,1.875680e+03
1.348964e+03,1.869434e+03
1.349928e+03,1.868164e+03
1.350893e+03,1.869484e+03
1.351857e+03,1.864683e+03
1.352821e+03,1.853851e+03
1.353785e+03,1.852379e+03
1.354750e+03,1.862028e+03
1.355714e+03,1.870210e+03
1.356678e+03,1.863472e+03
1.357642e+03,1.852264e+03
1.358606e+03,1.852326e+03
1.359571e+03,1.859112e+03
1.360535e+03,1.862709e+03
1.361499e+03,1.859153e+03
1.362463e+03,1.855505e+03
1.363428e+03,1.854823e+03
1.364392e+03,1.855950e+03
1.365356e+03,1.858095e+03
1.366320e+03,1.860008e+03
1.367285e+03,1.858908e+03
1.368249e+03,1.854270e+03
1.369213e+03,1.849895e+03
1.370177e+03,1.846597e+03
1.371141e+03,1.843525e+03
1.372106e+03,1.838988e+03
1.373070e+03,1.833578e+03
1.374034e+03,1.833012e+03
1.374998e+03,1.837070e+03
1.375963e+03,1.839240e+03
1.376927e+03,1.834639e+03
1.377891e+03,1.829989e+03
1.378855e+03,1.834519e+03
1.379820e+03,1.841617e+03
1.380784e+03,1.841670e+03
1.381748e+03,1.833963e+03
1.382712e+03,1.830135e+03
1.383677e+03,1.837491e+03
1.384641e+03,1.842893e+03
1.385605e+03,1.842128e+03
1.386569e+03,1.836570e+03
1.387533e+03,1.827012e+03
1.388498e+03,1.811301e+03
1.389462e+03,1.806188e+03
1.390426e+03,1.812946e+03
1.391390e+03,1.820697e+03
1.392355e+03,1.823588e+03
1.393319e+03,1.823288e+03
1.394283e+03,1.820133e+03
1.395247e+03,1.815917e+03
1.396212e+03,1.816911e+03
1.397176e+03,1.824926e+03
1.398140e+03,1.829579e+03
1.399104e+03,1.820292e+03
1.400068e+03,1.809192e+03
1.401033e+03,1.802556e+03
1.401997e+03,1.800467e+03
1.402961e+03,1.802249e+03
1.403925e+03,1.810342e+03
1.404890e+03,1.816412e+03
1.405854e+03,1.821137e+03
1.406818e+03,1.821791e+03
1.407782e+03,1.814216e+03
1.408747e+03,1.802556e+03
1.409711e+03,1.800888e+03
1.410675e+03,1.806491e+03
1.411639e+03,1.812183e+03
1.412604e+03,1.816410e+03
1.413568e+03,1.817986e+03
1.414532e+03,1.814310e+03
1.415496e+03,1.810007e+03
1.416460e+03,1.807786e+03
1.417425e+03,1.807303e+03
1.418389e+03,1.808276e+03
1.419353e+03,1.814714e+03
1.420317e+03,1.816355e+03
1.421282e+03,1.811691e+03
1.422246e+03,1.804973e+03
1.423210e+03,1.798561e+03
1.424174e+03,1.793048e+03
1.425139e+03,1.791095e+03
1.426103e+03,1.791950e+03
1.427067e+03,1.793385e+03
1.428031e+03,1.794759e+03
1.428995e+03,1.797070e+03
1.429960e+03,1.804005e+03
1.430924e+03,1.809631e+03
1.431888e+03,1.805255e+03
1.432852e+03,1.793255e+03
1.433817e+03,1.786461e+03
1.434781e+03,1.792654e+03
1.435745e+03,1.798383e+03
1.436709e+03,1.801287e+03
1.437674e+03,1.802766e+03
1.438638e+03,1.804745e+03
1.439602e+03,1.807632e+03
1.440566e+03,1.809785e+03
1.441531e+03,1.811177e+03
1.442495e+03,1.813673e+03
1.443459e+03,1.817844e+03
1.444423e+03,1.822300e+03
1.445387e+03,1.826783e+03
1.446352e+03,1.829388e+03
1.447316e+03,1.827923e+03
1.448280e+03,1.823647e+03
1.449244e+03,1.820269e+03
1.450209e+03,1.819591e+03
1.451173e+03,1.818456e+03
1.452137e+03,1.816456e+03
1.453101e+03,1.811612e+03
1.454066e+03,1.800704e+03
1.455030e+03,1.785453e+03
1.455994e+03,1.780118e+03
1.456958e+03,1.783354e+03
1.457922e+03,1.786163e+03
1.458887e+03,1.784325e+03
1.459851e+03,1.782528e+03
1.460815e+03,1.785902e+03
1.461779e+03,1.789947e+03
1.462744e+03,1.791900e+03
1.463708e+03,1.791926e+03
1.464672e+03,1.790555e+03
1.465636e+03,1.788369e+03
1.466601e+03,1.785250e+03
1.467565e+03,1.780166e+03
1.468529e+03,1.776397e+03
1.469493e+03,1.777139e+03
1.470458e+03,1.780922e+03
1.471422e+03,1.784375e+03
1.472386e+03,1.787604e+03
1.473350e+03,1.789413e+03
1.474314e+03,1.788467e+03
1.475279e+03,1.787918e+03
1.476243e+03,1.792154e+03
1.477207e+03,1.794819e+03
1.478171e+03,1.790397e+03
1.479136e+03,1.780877e+03
1.480100e+03,1.774910e+03
1.481064e+03,1.773770e+03
1.482028e+03,1.771645e+03
1.482993e+03,1.767727e+03
1.483957e+03,1.765017e+03
1.484921e+03,1.766873e+03
1.485885e+03,1.770772e+03
1.486849e+03,1.772320e+03
1.487814e+03,1.771383e+03
1.488778e+03,1.768483e+03
1.489742e+03,1.763345e+03
1.490706e+03,1.758783e+03
1.491671e+03,1.754625e+03
1.492635e+03,1.754904e+03
1.493599e+03,1.762916e+03
1.494563e+03,1.774104e+03
1.495528e+03,1.776112e+03
1.496492e+03,1.769092e+03
1.497456e+03,1.766529e+03
1.498420e+03,1.770470e+03
1.499385e+03,1.775846e+03
1.500349e+03,1.779314e+03
1.501313e+03,1.782099e+03
1.502277e+03,1.786031e+03
1.503241e+03,1.789073e+03
1.504206e+03,1.787682e+03
1.505170e+03,1.778868e+03
1.506134e+03,1.773690e+03
1.507098e+03,1.773296e+03
1.508063e+03,1.773704e+03
1.509027e+03,1.772829e+03
1.509991e+03,1.773379e+03
1.510955e+03,1.782493e+03
1.511920e+03,1.795932e+03
1.512884e+03,1.802022e+03
1.513848e+03,1.802265e+03
1.514812e+03,1.808360e+03
1.515776e+03,1.827607e+03
1.516741e+03,1.848987e+03
1.517705e+03,1.867389e+03
1.518669e+03,1.887571e+03
1.519633e+03,1.916371e+03
1.520598e+03,1.952420e+03
1.521562e+03,1.975916e+03
1.522526e+03,1.986491e+03
1.523490e+03,1.988069e+03
1.524455e+03,1.981044e+03
1.525419e+03,1.972270e+03
1.526383e+03,1.968023e+03
1.527347e+03,1.965270e+03
1.528312e+03,1.960706e+03
1.529276e+03,1.956480e+03
1.530240e+03,1.959291e+03
1.531204e+03,1.974019e+03
1.532168e+03,1.980326e+03
1.533133e+03,1.976561e+03
1.534097e+03,1.964716e+03
1.535061e+03,1.943214e+03
1.536025e+03,1.916982e+03
1.536990e+03,1.894637e+03
1.537954e+03,1.875796e+03
1.538918e+03,1.860299e+03
1.539882e+03,1.848405e+03
1.540847e+03,1.835258e+03
1.541811e+03,1.814629e+03
1.542775e+03,1.798428e+03
1.543739e+03,1.792109e+03
1.544703e+03,1.790753e+03
1.545668e+03,1.784552e+03
1.546632e+03,1.775789e+03
1.547596e+03,1.775841e+03
1.548560e+03,1.783751e+03
1.549525e+03,1.790193e+03
1.550489e+03,1.789402e+03
1.551453e+03,1.785808e+03
1.552417e+03,1.779437e+03
1.553382e+03,1.772660e+03
1.554346e+03,1.767911e+03
1.555310e+03,1.765296e+03
1.556274e+03,1.763444e+03
1.557239e+03,1.762120e+03
1.558203e+03,1.757285e+03
1.559167e+03,1.747693e+03
1.560131e+03,1.739619e+03
1.561095e+03,1.739888e+03
1.562060e+03,1.743266e+03
1.563024e+03,1.747618e+03
1.563988e+03,1.751055e+03
1.564952e+03,1.749458e+03
1.565917e+03,1.740377e+03
1.566881e+03,1.733717e+03
1.567845e+03,1.729138e+03
1.568809e+03,1.727682e+03
1.569774e+03,1.731414e+03
1.570738e+03,1.736164e+03
1.571702e+03,1.736297e+03
1.572666e+03,1.733766e+03
1.573630e+03,1.731403e+03
1.574595e+03,1.730024e+03
1.575559e+03,1.726477e+03
1.576523e+03,1.718210e+03
1.577487e+03,1.714544e+03
1.578452e+03,1.717054e+03
1.579416e+03,1.720947e+03
1.580380e+03,1.721318e+03
1.581344e+03,1.720190e+03
1.582309e+03,1.722394e+03
1.583273e+03,1.726485e+03
1.584237e+03,1.728331e+03
1.585201e+03,1.726258e+03
1.586166e+03,1.723001e+03
1.587130e+03,1.716378e+03
1.588094e+03,1.712733e+03
1.589058e+03,1.716558e+03
1.590022e+03,1.723273e+03
1.590987e+03,1.722946e+03
1.591951e+03,1.718431e+03
1.592915e+03,1.713724e+03
1.593879e+03,1.709036e+03
1.594844e+03,1.707336e+03
1.595808e+03,1.716351e+03
1.596772e+03,1.719403e+03
1.597736e+03,1.710587e+03
1.598701e+03,1.700853e+03
1.599665e+03,1.700326e+03
1.600629e+03,1.706231e+03
1.601593e+03,1.706492e+03
1.602557e+03,1.703134e+03
1.603522e+03,1.703334e+03
1.604486e+03,1.710206e+03
1.605450e+03,1.713305e+03
1.606414e+03,1.704519e+03
1.607379e+03,1.697050e+03
1.608343e+03,1.696227e+03
1.609307e+03,1.698283e+03
1.610271e+03,1.696456e+03
1.611236e+03,1.691568e+03
1.612200e+03,1.688085e+03
1.613164e+03,1.686770e+03
1.614128e+03,1.687320e+03
1.615093e+03,1.691163e+03
1.616057e+03,1.693778e+03
1.617021e+03,1.690912e+03
1.617985e+03,1.688505e+03
1.618949e+03,1.692199e+03
1.619914e+03,1.699023e+03
1.620878e+03,1.694754e+03
1.621842e+03,1.682938e+03
1.622806e+03,1.677465e+03
1.623771e+03,1.681521e+03
1.624735e+03,1.684513e+03
1.625699e+03,1.676119e+03
1.626663e+03,1.670373e+03
1.627628e+03,1.673646e+03
1.628592e+03,1.678889e+03
1.629556e+03,1.677718e+03
1.630520e+03,1.672400e+03
1.631484e+03,1.672915e+03
1.632449e+03,1.677415e+03
1.633413e+03,1.677687e+03
1.634377e+03,1.667557e+03
1.635341e+03,1.661247e+03
1.636306e+03,1.667891e+03
1.637270e+03,1.676152e+03
1.638234e+03,1.682449e+03
1.639198e+03,1.685450e+03
1.640163e+03,1.677203e+03
1.641127e+03,1.662955e+03
1.642091e+03,1.660238e+03
1.643055e+03,1.669129e+03
1.644020e+03,1.677002e+03
1.644984e+03,1.678058e+03
1.645948e+03,1.676011e+03
1.646912e+03,1.671694e+03
1.647876e+03,1.666024e+03
1.648841e+03,1.658160e+03
1.649805e+03,1.650674e+03
1.650769e+03,1.654001e+03
1.651733e+03,1.663579e+03
1.652698e+03,1.668328e+03
1.653662e+03,1.664370e+03
1.654626e+03,1.659896e+03
1.655590e+03,1.655270e+03
1.656555e+03,1.653895e+03
1.657519e+03,1.658331e+03
1.658483e+03,1.665028e+03
1.659447e+03,1.668507e+03
1.660411e+03,1.668818e+03
1.661376e+03,1.666818e+03
1.662340e+03,1.663589e+03
1.663304e+03,1.660719e+03
1.664268e+03,1.656479e+03
1.665233e+03,1.654807e+03
1.666197e+03,1.655746e+03
1.667161e+03,1.657705e+03
1.668125e+03,1.661057e+03
1.669090e+03,1.663701e+03
1.670054e+03,1.661808e+03
1.671018e+03,1.657662e+03
1.671982e+03,1.654095e+03
1.672947e+03,1.651677e+03
1.673911e+03,1.651229e+03
1.674875e+03,1.652486e+03
1.675839e+03,1.652583e+03
1.676803e+03,1.651843e+03
1.677768e+03,1.651905e+03
1.678732e+03,1.654882e+03
1.679696e+03,1.657054e+03
1.680660e+03,1.652773e+03
1.681625e+03,1.645996e+03
1.682589e+03,1.644396e+03
1.683553e+03,1.648989e+03
1.684517e+03,1.650074e+03
1.685482e+03,1.647518e+03
1.686446e+03,1.644093e+03
1.687410e+03,1.640036e+03
1.688374e+03,1.639488e+03
1.689339e+03,1.650824e+03
1.690303e+03,1.660706e+03
1.691267e+03,1.659488e+03
1.692231e+03,1.653140e+03
1.693195e+03,1.650864e+03
1.694160e+03,1.651537e+03
1.695124e+03,1.650363e+03
1.696088e+03,1.647882e+03
1.697052e+03,1.646678e+03
1.698017e+03,1.645771e+03
1.698981e+03,1.648089e+03
1.699945e+03,1.658742e+03
1.700909e+03,1.663675e+03
1.701874e+03,1.654594e+03
1.702838e+03,1.640074e+03
1.703802e+03,1.637158e+03
1.704766e+03,1.640256e+03
1.705730e+03,1.640488e+03
1.706695e+03,1.637255e+03
1.707659e+03,1.635057e+03
1.708623e+03,1.634615e+03
1.709587e+03,1.638019e+03
1.710552e+03,1.645794e+03
1.711516e+03,1.650405e+03
1.712480e+03,1.641813e+03
1.713444e+03,1.630515e+03
1.714409e+03,1.631041e+03
1.715373e+03,1.636171e+03
1.716337e+03,1.633349e+03
1.717301e+03,1.622575e+03
1.718266e+03,1.618081e+03
1.719230e+03,1.619405e+03
1.720194e+03,1.623406e+03
1.721158e+03,1.629380e+03
1.722122e+03,1.634106e+03
1.723087e+03,1.636733e+03
1.724051e+03,1.635440e+03
1.725015e+03,1.626547e+03
1.725979e+03,1.617269e+03
1.726944e+03,1.619793e+03
1.727908e+03,1.630018e+03
1.728872e+03,1.628608e+03
1.729836e+03,1.618148e+03
1.730801e+03,1.612252e+03
1.731765e+03,1.620022e+03
1.732729e+03,1.623578e+03
1.733693e+03,1.619356e+03
1.734657e+03,1.616581e+03
1.735622e+03,1.619888e+03
1.736586e+03,1.624788e+03
1.737550e+03,1.624080e+03
1.738514e+03,1.621805e+03
1.739479e+03,1.623616e+03
1.740443e+03,1.628828e+03
1.741407e+03,1.631476e+03
1.742371e+03,1.631486e+03
1.743336e+03,1.629530e+03
1.744300e+03,1.625581e+03
1.745264e+03,1.620031e+03
1.746228e+03,1.610439e+03
1.747193e+03,1.604578e+03
1.748157e+03,1.611514e+03
1.749121e+03,1.619885e+03
1.750085e+03,1.619469e+03
1.751049e+03,1.612357e+03
1.752014e+03,1.609873e+03
1.752978e+03,1.611201e+03
1.753942e+03,1.613728e+03
1.754906e+03,1.616691e+03
1.755871e+03,1.619135e+03
1.756835e+03,1.621385e+03
1.757799e+03,1.618259e+03
1.758763e+03,1.609630e+03
1.759728e+03,1.601995e+03
1.760692e+03,1.601978e+03
1.761656e+03,1.604739e+03
1.762620e+03,1.605871e+03
1.763584e+03,1.605363e+03
1.764549e+03,1.603569e+03
1.765513e+03,1.599890e+03
1.766477e+03,1.594229e+03
1.767441e+03,1.588096e+03
1.768406e+03,1.589066e+03
1.769370e+03,1.600734e+03
1.770334e+03,1.611433e+03
1.771298e+03,1.615755e+03
1.772263e+03,1.616173e+03
1.773227e+03,1.613357e+03
1.774191e+03,1.608291e+03
1.775155e+03,1.599420e+03
1.776120e+03,1.590530e+03
1.777084e+03,1.588612e+03
1.778048e+03,1.591885e+03
1.779012e+03,1.594678e+03
1.779976e+03,1.596965e+03
1.780941e+03,1.599013e+03
1.781905e+03,1.600063e+03
1.782869e+03,1.598102e+03
1.783833e+03,1.590665e+03
1.784798e+03,1.585690e+03
1.785762e+03,1.591236e+03
1.786726e+03,1.596493e+03
1.787690e+03,1.596720e+03
1.788655e+03,1.593606e+03
1.789619e+03,1.588521e+03
1.790583e+03,1.582629e+03
1.791547e+03,1.577176e+03
1.792511e+03,1.572832e+03
1.793476e+03,1.571400e+03
1.794440e+03,1.571216e+03
1.795404e+03,1.579150e+03
1.796368e+03,1.595474e+03
1.797333e+03,1.606619e+03
1.798297e+03,1.601256e+03
1.799261e+03,1.595224e+03
1.800225e+03,1.602970e+03
1.801190e+03,1.608695e+03
1.802154e+03,1.600877e+03
1.803118e+03,1.586059e+03
1.804082e+03,1.582963e+03
1.805047e+03,1.587567e+03
1.806011e+03,1.589571e+03
1.806975e+03,1.588030e+03
1.807939e+03,1.588862e+03
1.808903e+03,1.593954e+03
1.809868e+03,1.594575e+03
1.810832e+03,1.590104e+03
1.811796e+03,1.586119e+03
1.812760e+03,1.587314e+03
1.813725e+03,1.589045e+03
1.814689e+03,1.587668e+03
1.815653e+03,1.586609e+03
1.816617e+03,1.589328e+03
1.817582e+03,1.593792e+03
1.818546e+03,1.592387e+03
1.819510e+03,1.587375e+03
1.820474e+03,1.584674e+03
1.821438e+03,1.585443e+03
1.822403e+03,1.581884e+03
1.823367e+03,1.571185e+03
1.824331e+03,1.570331e+03
1.825295e+03,1.582023e+03
1.826260e+03,1.590142e+03
1.827224e+03,1.577879e+03
1.828188e+03,1.566171e+03
1.829152e+03,1.565371e+03
1.830117e+03,1.569653e+03
1.831081e+03,1.576730e+03
1.832045e+03,1.583806e+03
1.833009e+03,1.584215e+03
1.833974e+03,1.580911e+03
1.834938e+03,1.576221e+03
1.835902e+03,1.569596e+03
1.836866e+03,1.565117e+03
1.837830e+03,1.562762e+03
1.838795e+03,1.560748e+03
1.839759e+03,1.559315e+03
1.840723e+03,1.560627e+03
1.841687e+03,1.569392e+03
1.842652e+03,1.574973e+03
1.843616e+03,1.571587e+03
1.844580e+03,1.566359e+03
1.845544e+03,1.568166e+03
1.846509e+03,1.573585e+03
1.847473e+03,1.577811e+03
1.848437e+03,1.579859e+03
1.849401e+03,1.577143e+03
1.850365e+03,1.570121e+03
1.851330e+03,1.562450e+03
1.852294e+03,1.555130e+03
1.853258e+03,1.553623e+03
1.854222e+03,1.559875e+03
1.855187e+03,1.564653e+03
1.856151e+03,1.560927e+03
1.857115e+03,1.558351e+03
1.858079e+03,1.558394e+03
1.859044e+03,1.560686e+03
1.860008e+03,1.570450e+03
1.860972e+03,1.578274e+03
1.861936e+03,1.568849e+03
1.862901e+03,1.555005e+03
1.863865e+03,1.555291e+03
1.864829e+03,1.566461e+03
1.865793e+03,1.570611e+03
1.866757e+03,1.569838e+03
1.867722e+03,1.568664e+03
1.868686e+03,1.567688e+03
1.869650e+03,1.567104e+03
1.870614e+03,1.566176e+03
1.871579e+03,1.567353e+03
1.872543e+03,1.572599e+03
1.873507e+03,1.576206e+03
1.874471e+03,1.568899e+03
1.875436e+03,1.560795e+03
1.876400e+03,1.557189e+03
1.877364e+03,1.556231e+03
1.878328e+03,1.557033e+03
1.879292e+03,1.557960e+03
1.880257e+03,1.552703e+03
1.881221e+03,1.545570e+03
1.882185e+03,1.548730e+03
1.883149e+03,1.563263e+03
1.884114e+03,1.565337e+03
1.885078e+03,1.556526e+03
1.886042e+03,1.551232e+03
1.887006e+03,1.554000e+03
1.887971e+03,1.555573e+03
1.888935e+03,1.552899e+03
1.889899e+03,1.551795e+03
1.890863e+03,1.552699e+03
1.891828e+03,1.554580e+03
1.892792e+03,1.560751e+03
1.893756e+03,1.564383e+03
1.894720e+03,1.559040e+03
1.895684e+03,1.551552e+03
1.896649e+03,1.546193e+03
1.897613e+03,1.542794e+03
1.898577e+03,1.545644e+03
1.899541e+03,1.551183e+03
1.900506e+03,1.549922e+03
1.901470e+03,1.539257e+03
1.902434e+03,1.535915e+03
1.903398e+03,1.539605e+03
1.904363e+03,1.541543e+03
1.905327e+03,1.539463e+03
1.906291e+03,1.538838e+03
1.907255e+03,1.540823e+03
1.908219e+03,1.546649e+03
1.909184e+03,1.558496e+03
1.910148e+03,1.566104e+03
1.911112e+03,1.553631e+03
1.912076e+03,1.539935e+03
1.913041e+03,1.544282e+03
1.914005e+03,1.553355e+03
1.914969e+03,1.552935e+03
1.915933e+03,1.545617e+03
1.916898e+03,1.538512e+03
1.917862e+03,1.532833e+03
1.918826e+03,1.530917e+03
1.919790e+03,1.533709e+03
1.920755e+03,1.534841e+03
1.921719e+03,1.533663e+03
1.922683e+03,1.536790e+03
1.923647e+03,1.546305e+03
1.924611e+03,1.550503e+03
1.925576e+03,1.537462e+03
1.926540e+03,1.530019e+03
1.927504e+03,1.531317e+03
1.928468e+03,1.532802e+03
1.929433e+03,1.523605e+03
1.930397e+03,1.515193e+03
1.931361e+03,1.518320e+03
1.932325e+03,1.524205e+03
1.933290e+03,1.527082e+03
1.934254e+03,1.528869e+03
1.935218e+03,1.530591e+03
1.936182e+03,1.531747e+03
1.937146e+03,1.534623e+03
1.938111e+03,1.539105e+03
1.939075e+03,1.539084e+03
1.940039e+03,1.535708e+03
1.941003e+03,1.530209e+03
1.941968e+03,1.522179e+03
1.942932e+03,1.518926e+03
1.943896e+03,1.526665e+03
1.944860e+03,1.527659e+03
1.945825e+03,1.520598e+03
1.946789e+03,1.513809e+03
1.947753e+03,1.510889e+03
1.948717e+03,1.511606e+03
1.949682e+03,1.517845e+03
1.950646e+03,1.523269e+03
1.951610e+03,1.523318e+03
1.952574e+03,1.522033e+03
1.953538e+03,1.526027e+03
1.954503e+03,1.531144e+03
1.955467e+03,1.534198e+03
1.956431e+03,1.535056e+03
1.957395e+03,1.530717e+03
1.958360e+03,1.523305e+03
1.959324e+03,1.518681e+03
1.960288e+03,1.517949e+03
1.961252e+03,1.520049e+03
1.962217e+03,1.524583e+03
1.963181e+03,1.519801e+03
1.964145e+03,1.506804e+03
1.965109e+03,1.501893e+03
1.966073e+03,1.523277e+03
1.967038e+03,1.534011e+03
1.968002e+03,1.528568e+03
1.968966e+03,1.519612e+03
1.969930e+03,1.511976e+03
1.970895e+03,1.506209e+03
1.971859e+03,1.504151e+03
1.972823e+03,1.506112e+03
1.973787e+03,1.512179e+03
1.974752e+03,1.519276e+03
1.975716e+03,1.524919e+03
1.976680e+03,1.527994e+03
1.977644e+03,1.528234e+03
1.978609e+03,1.526369e+03
1.979573e+03,1.520630e+03
1.980537e+03,1.512379e+03
1.981501e+03,1.507168e+03
1.982465e+03,1.505156e+03
1.983430e+03,1.505990e+03
1.984394e+03,1.509143e+03
1.985358e+03,1.515869e+03
1.986322e+03,1.524609e+03
1.987287e+03,1.525974e+03
1.988251e+03,1.515098e+03
1.989215e+03,1.508082e+03
1.990179e+03,1.507739e+03
1.991144e+03,1.508466e+03
1.992108e+03,1.509618e+03
1.993072e+03,1.510598e+03
1.994036e+03,1.509951e+03
1.995000e+03,1.508909e+03
1.995965e+03,1.507507e+03
1.996929e+03,1.507321e+03
1.997893e+03,1.510693e+03
1.998857e+03,1.513048e+03
1.999822e+03,1.508666e+03
2.000786e+03,1.502977e+03
2.001750e+03,1.501914e+03
2.002714e+03,1.504566e+03
2.003679e+03,1.507551e+03
2.004643e+03,1.509417e+03
2.005607e+03,1.508026e+03
2.006571e+03,1.504886e+03
2.007536e+03,1.504135e+03
2.008500e+03,1.505288e+03
2.009464e+03,1.507201e+03
2.010428e+03,1.509561e+03
2.011392e+03,1.507215e+03
2.012357e+03,1.499422e+03
2.013321e+03,1.495010e+03
2.014285e+03,1.493653e+03
2.015249e+03,1.494252e+03
2.016214e+03,1.500342e+03
2.017178e+03,1.499893e+03
2.018142e+03,1.492021e+03
2.019106e+03,1.487280e+03
2.020071e+03,1.492546e+03
2.021035e+03,1.497710e+03
2.021999e+03,1.497966e+03
2.022963e+03,1.496206e+03
2.023927e+03,1.493715e+03
2.024892e+03,1.491093e+03
2.025856e+03,1.489746e+03
2.026820e+03,1.486557e+03
2.027784e+03,1.476129e+03
2.028749e+03,1.468439e+03
2.029713e+03,1.486143e+03
2.030677e+03,1.509695e+03
2.031641e+03,1.508878e+03
2.032606e+03,1.495649e+03
2.033570e+03,1.492785e+03
2.034534e+03,1.496980e+03
2.035498e+03,1.496169e+03
2.036463e+03,1.491294e+03
2.037427e+03,1.482289e+03
2.038391e+03,1.470684e+03
2.039355e+03,1.466396e+03
2.040319e+03,1.468635e+03
2.041284e+03,1.474690e+03
2.042248e+03,1.483725e+03
2.043212e+03,1.483760e+03
2.044176e+03,1.473720e+03
2.045141e+03,1.474355e+03
2.046105e+03,1.488062e+03
2.047069e+03,1.496779e+03
2.048033e+03,1.485565e+03
2.048998e+03,1.478155e+03
2.049962e+03,1.476882e+03
2.050926e+03,1.479627e+03
2.051890e+03,1.491193e+03
2.052854e+03,1.495724e+03
2.053819e+03,1.485654e+03
2.054783e+03,1.474681e+03
2.055747e+03,1.470560e+03
2.056711e+03,1.470330e+03
2.057676e+03,1.473050e+03
2.058640e+03,1.475667e+03
2.059604e+03,1.474731e+03
2.060568e+03,1.473413e+03
2.061533e+03,1.478804e+03
2.062497e+03,1.485833e+03
2.063461e+03,1.491162e+03
2.064425e+03,1.492850e+03
2.065390e+03,1.484450e+03
2.066354e+03,1.472318e+03
2.067318e+03,1.469401e+03
2.068282e+03,1.472883e+03
2.069247e+03,1.475819e+03
2.070211e+03,1.477052e+03
2.071175e+03,1.467907e+03
2.072139e+03,1.455022e+03
2.073104e+03,1.456421e+03
2.074068e+03,1.472877e+03
2.075032e+03,1.479922e+03
2.075996e+03,1.478678e+03
2.076960e+03,1.476033e+03
2.077925e+03,1.473085e+03
2.078889e+03,1.471158e+03
2.079853e+03,1.470419e+03
2.080817e+03,1.466417e+03
2.081781e+03,1.458919e+03
2.082746e+03,1.454770e+03
2.083710e+03,1.460709e+03
2.084674e+03,1.459799e+03
2.085638e+03,1.451994e+03
2.086603e+03,1.449295e+03
2.087567e+03,1.460962e+03
2.088531e+03,1.467297e+03
2.089495e+03,1.464148e+03
2.090459e+03,1.460550e+03
2.091424e+03,1.463914e+03
2.092388e+03,1.466334e+03
2.093352e+03,1.459008e+03
2.094316e+03,1.454271e+03
2.095281e+03,1.454174e+03
2.096245e+03,1.457260e+03
2.097209e+03,1.466726e+03
2.098173e+03,1.472776e+03
2.099138e+03,1.471478e+03
2.100102e+03,1.467860e+03
2.101066e+03,1.469503e+03
2.102030e+03,1.468622e+03
2.102995e+03,1.451372e+03
2.103959e+03,1.435593e+03
2.104923e+03,1.438629e+03
2.105887e+03,1.450779e+03
2.106852e+03,1.456025e+03
2.107816e+03,1.456261e+03
2.108780e+03,1.455317e+03
2.109744e+03,1.453418e+03
2.110708e+03,1.451927e+03
2.111673e+03,1.451500e+03
2.112637e+03,1.450843e+03
2.113601e+03,1.449916e+03
2.114565e+03,1.452868e+03
2.115530e+03,1.456690e+03
2.116494e+03,1.451931e+03
2.117458e+03,1.444006e+03
2.118422e+03,1.447684e+03
2.119387e+03,1.459161e+03
2.120351e+03,1.465647e+03
2.121315e+03,1.465811e+03
2.122279e+03,1.458626e+03
2.123244e+03,1.444270e+03
2.124208e+03,1.440019e+03
2.125172e+03,1.443210e+03
2.126136e+03,1.441991e+03
2.127101e+03,1.433215e+03
2.128065e+03,1.431648e+03
2.129029e+03,1.436189e+03
2.129993e+03,1.441334e+03
2.130958e+03,1.444649e+03
2.131922e+03,1.447780e+03
2.132886e+03,1.451647e+03
2.133850e+03,1.451924e+03
2.134814e+03,1.449583e+03
2.135779e+03,1.445313e+03
2.136743e+03,1.435613e+03
2.137707e+03,1.433362e+03
2.138671e+03,1.439278e+03
2.139635e+03,1.444371e+03
2.140600e+03,1.443908e+03
2.141564e+03,1.442529e+03
2.142528e+03,1.440856e+03
2.143492e+03,1.438976e+03
2.144457e+03,1.435815e+03
2.145421e+03,1.433544e+03
2.146385e+03,1.433336e+03
2.147349e+03,1.433234e+03
2.148313e+03,1.433732e+03
2.149278e+03,1.433725e+03
2.150242e+03,1.427967e+03
2.151206e+03,1.425440e+03
2.152170e+03,1.427542e+03
2.153135e+03,1.429504e+03
2.154099e+03,1.428845e+03
2.155063e+03,1.430725e+03
2.156027e+03,1.438261e+03
2.156992e+03,1.440782e+03
2.157956e+03,1.421181e+03
2.158920e+03,1.406546e+03
2.159884e+03,1.410564e+03
2.160849e+03,1.418925e+03
2.161813e+03,1.426701e+03
2.162777e+03,1.431796e+03
2.163741e+03,1.433720e+03
2.164706e+03,1.429787e+03
2.165670e+03,1.418652e+03
2.166634e+03,1.409369e+03
2.167598e+03,1.411576e+03
2.168563e+03,1.416717e+03
2.169527e+03,1.420418e+03
2.170491e+03,1.420713e+03
2.171455e+03,1.414356e+03
2.172419e+03,1.409071e+03
2.173384e+03,1.410917e+03
2.174348e+03,1.414586e+03
2.175312e+03,1.416291e+03
2.176276e+03,1.415732e+03
2.177241e+03,1.409920e+03
2.178205e+03,1.406249e+03
2.179169e+03,1.411913e+03
2.180133e+03,1.419974e+03
2.181098e+03,1.420222e+03
2.182062e+03,1.416662e+03
2.183026e+03,1.410141e+03
2.183990e+03,1.404207e+03
2.184955e+03,1.405913e+03
2.185919e+03,1.409296e+03
2.186883e+03,1.408279e+03
2.187847e+03,1.406388e+03
2.188812e+03,1.411506e+03
2.189776e+03,1.416533e+03
2.190740e+03,1.408355e+03
2.191704e+03,1.399716e+03
2.192668e+03,1.408145e+03
2.193633e+03,1.419658e+03
2.194597e+03,1.409212e+03
2.195561e+03,1.395859e+03
2.196525e+03,1.395770e+03
2.197490e+03,1.403595e+03
2.198454e+03,1.415466e+03
2.199418e+03,1.424367e+03
2.200382e+03,1.425084e+03
2.201346e+03,1.420408e+03
2.202311e+03,1.407561e+03
2.203275e+03,1.396507e+03
2.204239e+03,1.397962e+03
2.205203e+03,1.404435e+03
2.206167e+03,1.411830e+03
2.207132e+03,1.417234e+03
2.208096e+03,1.413218e+03
2.209060e+03,1.405465e+03
2.210024e+03,1.399564e+03
2.210989e+03,1.396419e+03
2.211953e+03,1.400900e+03
2.212917e+03,1.408524e+03
2.213881e+03,1.411636e+03
2.214846e+03,1.409438e+03
2.215810e+03,1.397025e+03
2.216774e+03,1.385204e+03
2.217738e+03,1.387813e+03
2.218703e+03,1.396668e+03
2.219667e+03,1.397749e+03
2.220631e+03,1.395350e+03
2.221595e+03,1.393081e+03
2.222560e+03,1.389521e+03
2.223524e+03,1.378798e+03
2.224488e+03,1.369478e+03
2.225452e+03,1.374818e+03
2.226417e+03,1.385671e+03
2.227381e+03,1.397049e+03
2.228345e+03,1.405267e+03
2.229309e+03,1.398136e+03
2.230273e+03,1.390181e+03
2.231238e+03,1.397962e+03
2.232202e+03,1.408039e+03
2.233166e+03,1.399926e+03
2.234130e+03,1.386346e+03
2.235095e+03,1.375164e+03
2.236059e+03,1.368435e+03
2.237023e+03,1.373142e+03
2.237987e+03,1.378235e+03
2.238952e+03,1.375363e+03
2.239916e+03,1.368595e+03
2.240880e+03,1.359553e+03
2.241844e+03,1.357386e+03
2.242809e+03,1.372721e+03
2.243773e+03,1.388098e+03
2.244737e+03,1.382234e+03
2.245701e+03,1.371490e+03
2.246666e+03,1.367554e+03
2.247630e+03,1.367411e+03
2.248594e+03,1.373310e+03
2.249558e+03,1.379712e+03
2.250522e+03,1.378049e+03
2.251487e+03,1.377916e+03
2.252451e+03,1.384028e+03
2.253415e+03,1.387456e+03
2.254379e+03,1.376457e+03
2.255344e+03,1.368964e+03
2.256308e+03,1.373679e+03
2.257272e+03,1.378636e+03
2.258236e+03,1.369427e+03
2.259200e+03,1.360606e+03
2.260165e+03,1.355746e+03
2.261129e+03,1.355485e+03
2.262093e+03,1.365236e+03
2.263057e+03,1.371058e+03
2.264022e+03,1.370013e+03
2.264986e+03,1.368102e+03
2.265950e+03,1.367450e+03
2.266914e+03,1.367175e+03
2.267879e+03,1.365614e+03
2.268843e+03,1.365593e+03
2.269807e+03,1.372065e+03
2.270771e+03,1.373794e+03
2.271736e+03,1.365087e+03
2.272700e+03,1.360094e+03
2.273664e+03,1.361483e+03
2.274628e+03,1.363448e+03
2.275593e+03,1.363245e+03
2.276557e+03,1.362412e+03
2.277521e+03,1.362233e+03
2.278485e+03,1.362917e+03
2.279449e+03,1.366425e+03
2.280414e+03,1.363643e+03
2.281378e+03,1.354167e+03
2.282342e+03,1.347940e+03
2.283306e+03,1.351465e+03
2.284271e+03,1.352762e+03
2.285235e+03,1.351502e+03
2.286199e+03,1.347172e+03
2.287163e+03,1.339284e+03
2.288127e+03,1.343475e+03
2.289092e+03,1.356586e+03
2.290056e+03,1.357933e+03
2.291020e+03,1.342415e+03
2.291984e+03,1.330510e+03
2.292948e+03,1.324347e+03
2.293913e+03,1.328612e+03
2.294877e+03,1.342039e+03
2.295841e+03,1.352530e+03
2.296805e+03,1.358329e+03
2.297770e+03,1.352988e+03
2.298734e+03,1.340732e+03
2.299698e+03,1.341519e+03
2.300662e+03,1.353159e+03
2.301627e+03,1.347469e+03
2.302591e+03,1.332604e+03
2.303555e+03,1.331465e+03
2.304519e+03,1.340576e+03
2.305484e+03,1.339216e+03
2.306448e+03,1.333891e+03
2.307412e+03,1.336013e+03
2.308376e+03,1.341054e+03
2.309341e+03,1.336048e+03
2.310305e+03,1.328237e+03
2.311269e+03,1.328442e+03
2.312233e+03,1.333662e+03
2.313198e+03,1.339185e+03
2.314162e+03,1.343426e+03
2.315126e+03,1.345381e+03
2.316090e+03,1.345035e+03
2.317054e+03,1.341805e+03
2.318019e+03,1.337879e+03
2.318983e+03,1.333625e+03
2.319947e+03,1.330010e+03
2.320911e+03,1.329988e+03
2.321876e+03,1.330100e+03
2.322840e+03,1.324661e+03
2.323804e+03,1.323525e+03
2.324768e+03,1.335126e+03
2.325733e+03,1.342834e+03
2.326697e+03,1.326939e+03
2.327661e+03,1.320808e+03
2.328625e+03,1.335332e+03
2.329590e+03,1.343796e+03
2.330554e+03,1.325314e+03
2.331518e+03,1.315577e+03
2.332482e+03,1.319994e+03
2.333447e+03,1.324620e+03
2.334411e+03,1.322598e+03
2.335375e+03,1.318823e+03
2.336339e+03,1.313891e+03
2.337303e+03,1.312789e+03
2.338268e+03,1.319618e+03
2.339232e+03,1.319496e+03
2.340196e+03,1.314010e+03
2.341160e+03,1.311238e+03
2.342125e+03,1.313160e+03
2.343089e+03,1.319777e+03
2.344053e+03,1.327508e+03
2.345017e+03,1.329691e+03
2.345981e+03,1.325917e+03
2.346946e+03,1.315689e+03
2.347910e+03,1.304354e+03
2.348874e+03,1.307322e+03
2.349838e+03,1.316433e+03
2.350802e+03,1.304953e+03
2.351767e+03,1.285731e+03
2.352731e+03,1.284404e+03
2.353695e+03,1.293858e+03
2.354659e+03,1.302274e+03
2.355624e+03,1.308417e+03
2.356588e+03,1.310817e+03
2.357552e+03,1.312191e+03
2.358516e+03,1.315664e+03
2.359481e+03,1.318032e+03
2.360445e+03,1.313386e+03
2.361409e+03,1.306766e+03
2.362373e+03,1.299740e+03
2.363338e+03,1.294911e+03
2.364302e+03,1.298665e+03
2.365266e+03,1.304385e+03
2.366230e+03,1.309736e+03
2.367195e+03,1.313214e+03
2.368159e+03,1.313014e+03
2.369123e+03,1.309302e+03
2.370087e+03,1.303089e+03
2.371052e+03,1.298668e+03
2.372016e+03,1.299339e+03
2.372980e+03,1.297865e+03
2.373944e+03,1.293714e+03
2.374908e+03,1.291565e+03
2.375873e+03,1.293902e+03
2.376837e+03,1.294000e+03
2.377801e+03,1.292618e+03
2.378765e+03,1.292260e+03
2.379730e+03,1.293066e+03
2.380694e+03,1.288973e+03
2.381658e+03,1.283461e+03
2.382622e+03,1.284270e+03
2.383587e+03,1.289001e+03
2.384551e+03,1.290893e+03
2.385515e+03,1.289734e+03
2.386479e+03,1.285153e+03
2.387444e+03,1.280123e+03
2.388408e+03,1.277625e+03
2.389372e+03,1.279084e+03
2.390336e+03,1.287609e+03
2.391301e+03,1.295376e+03
2.392265e+03,1.294674e+03
2.393229e+03,1.288870e+03
2.394193e+03,1.278112e+03
2.395157e+03,1.271224e+03
2.396122e+03,1.277624e+03
2.397086e+03,1.281263e+03
2.398050e+03,1.276830e+03
2.399014e+03,1.273395e+03
2.399979e+03,1.273814e+03
2.400943e+03,1.277577e+03
2.401907e+03,1.284205e+03
2.402871e+03,1.283651e+03
2.403835e+03,1.274039e+03
2.404800e+03,1.272288e+03
2.405764e+03,1.278507e+03
2.406728e+03,1.279705e+03
2.407692e+03,1.274932e+03
2.408656e+03,1.272930e+03
2.409621e+03,1.274080e+03
2.410585e+03,1.275738e+03
2.411549e+03,1.276919e+03
2.412513e+03,1.275347e+03
2.413478e+03,1.271749e+03
2.414442e+03,1.267478e+03
2.415406e+03,1.263807e+03
2.416370e+03,1.261495e+03
2.417335e+03,1.260747e+03
2.418299e+03,1.263247e+03
2.419263e+03,1.264571e+03
2.420227e+03,1.261443e+03
2.421192e+03,1.258555e+03
2.422156e+03,1.263709e+03
2.423120e+03,1.263850e+03
2.424084e+03,1.253518e+03
2.425049e+03,1.249809e+03
2.426013e+03,1.270408e+03
2.426977e+03,1.275738e+03
2.427941e+03,1.263866e+03
2.428906e+03,1.258644e+03
2.429870e+03,1.266979e+03
2.430834e+03,1.269482e+03
2.431798e+03,1.266782e+03
2.432762e+03,1.263195e+03
2.433727e+03,1.258802e+03
2.434691e+03,1.247325e+03
2.435655e+03,1.234763e+03
2.436619e+03,1.234117e+03
2.437584e+03,1.241690e+03
2.438548e+03,1.252933e+03
2.439512e+03,1.261977e+03
2.440476e+03,1.262101e+03
2.441441e+03,1.258018e+03
2.442405e+03,1.258493e+03
2.443369e+03,1.256305e+03
2.444333e+03,1.247860e+03
2.445298e+03,1.241572e+03
2.446262e+03,1.244559e+03
2.447226e+03,1.252530e+03
2.448190e+03,1.265462e+03
2.449155e+03,1.273197e+03
2.450119e+03,1.265449e+03
2.451083e+03,1.264755e+03
2.452047e+03,1.269659e+03
2.453011e+03,1.267010e+03
2.453976e+03,1.253766e+03
2.454940e+03,1.249089e+03
2.455904e+03,1.250280e+03
2.456868e+03,1.243827e+03
2.457833e+03,1.232688e+03
2.458797e+03,1.232890e+03
2.459761e+03,1.239185e+03
2.460725e+03,1.244740e+03
2.461689e+03,1.247468e+03
2.462654e+03,1.243104e+03
2.463618e+03,1.236667e+03
2.464582e+03,1.231848e+03
2.465546e+03,1.228741e+03
2.466510e+03,1.223273e+03
2.467475e+03,1.224466e+03
2.468439e+03,1.234434e+03
2.469403e+03,1.240524e+03
2.470367e+03,1.232855e+03
2.471332e+03,1.231535e+03
2.472296e+03,1.235282e+03
2.473260e+03,1.231208e+03
2.474224e+03,1.215423e+03
2.475189e+03,1.218486e+03
2.476153e+03,1.233499e+03
2.477117e+03,1.233403e+03
2.478081e+03,1.223663e+03
2.479046e+03,1.231321e+03
2.480010e+03,1.242562e+03
2.480974e+03,1.238139e+03
2.481938e+03,1.228220e+03
2.482903e+03,1.223901e+03
2.483867e+03,1.223219e+03
2.484831e+03,1.224813e+03
2.485795e+03,1.225866e+03
2.486760e+03,1.225023e+03
2.487724e+03,1.223145e+03
2.488688e+03,1.220822e+03
2.489652e+03,1.220811e+03
2.490616e+03,1.225437e+03
2.491581e+03,1.226036e+03
2.492545e+03,1.223848e+03
2.493509e+03,1.223810e+03
2.494473e+03,1.225095e+03
2.495438e+03,1.214642e+03
2.496402e+03,1.200367e+03
2.497366e+03,1.203277e+03
2.498330e+03,1.213421e+03
2.499295e+03,1.209342e+03
2.500259e+03,1.204208e+03
2.501223e+03,1.212107e+03
2.502187e+03,1.221535e+03
2.503152e+03,1.220005e+03
2.504116e+03,1.215742e+03
2.505080e+03,1.211457e+03
2.506044e+03,1.207926e+03
2.507009e+03,1.202611e+03
2.507973e+03,1.206135e+03
2.508937e+03,1.217912e+03
2.509901e+03,1.218594e+03
2.510865e+03,1.202016e+03
2.511830e+03,1.200424e+03
2.512794e+03,1.208192e+03
2.513758e+03,1.212985e+03
2.514722e+03,1.215573e+03
2.515687e+03,1.219008e+03
2.516651e+03,1.219809e+03
2.517615e+03,1.213811e+03
2.518579e+03,1.206388e+03
2.519543e+03,1.202279e+03
2.520508e+03,1.204144e+03
2.521472e+03,1.214076e+03
2.522436e+03,1.219455e+03
2.523400e+03,1.206539e+03
2.524365e+03,1.197367e+03
2.525329e+03,1.192326e+03
2.526293e+03,1.191223e+03
2.527257e+03,1.195092e+03
2.528221e+03,1.196799e+03
2.529186e+03,1.196639e+03
2.530150e+03,1.197011e+03
2.531114e+03,1.196852e+03
2.532078e+03,1.183975e+03
2.533043e+03,1.173151e+03
2.534007e+03,1.180286e+03
2.534971e+03,1.190895e+03
2.535935e+03,1.185924e+03
2.536900e+03,1.184876e+03
2.537864e+03,1.195582e+03
2.538828e+03,1.203031e+03
2.539792e+03,1.196635e+03
2.540757e+03,1.189297e+03
2.541721e+03,1.182746e+03
2.542685e+03,1.184915e+03
2.543649e+03,1.195374e+03
2.544614e+03,1.199659e+03
2.545578e+03,1.196562e+03
2.546542e+03,1.187445e+03
2.547506e+03,1.177083e+03
2.548470e+03,1.177021e+03
2.549435e+03,1.179824e+03
2.550399e+03,1.178788e+03
2.551363e+03,1.177763e+03
2.552327e+03,1.181184e+03
2.553292e+03,1.185130e+03
2.554256e+03,1.189010e+03
2.555220e+03,1.189551e+03
2.556184e+03,1.186283e+03
2.557149e+03,1.181799e+03
2.558113e+03,1.176856e+03
2.559077e+03,1.177253e+03
2.560041e+03,1.180641e+03
2.561006e+03,1.181183e+03
2.561970e+03,1.181275e+03
2.562934e+03,1.183664e+03
2.563898e+03,1.184776e+03
2.564863e+03,1.177282e+03
2.565827e+03,1.170930e+03
2.566791e+03,1.178998e+03
2.567755e+03,1.184448e+03
2.568719e+03,1.181261e+03
2.569684e+03,1.179327e+03
2.570648e+03,1.184000e+03
2.571612e+03,1.189298e+03
2.572576e+03,1.195102e+03
2.573541e+03,1.193156e+03
2.574505e+03,1.184286e+03
2.575469e+03,1.186782e+03
2.576433e+03,1.191758e+03
2.577397e+03,1.187396e+03
2.578362e+03,1.177756e+03
2.579326e+03,1.162712e+03
2.580290e+03,1.154098e+03
2.581254e+03,1.155952e+03
2.582219e+03,1.159751e+03
2.583183e+03,1.162562e+03
2.584147e+03,1.160847e+03
2.585111e+03,1.156224e+03
2.586075e+03,1.149227e+03
2.587040e+03,1.139986e+03
2.588004e+03,1.141176e+03
2.588968e+03,1.149693e+03
2.589932e+03,1.162410e+03
2.590897e+03,1.173826e+03
2.591861e+03,1.168871e+03
2.592825e+03,1.162543e+03
2.593789e+03,1.164187e+03
2.594754e+03,1.166723e+03
2.595718e+03,1.166314e+03
2.596682e+03,1.162466e+03
2.597646e+03,1.154158e+03
2.598611e+03,1.147458e+03
2.599575e+03,1.144099e+03
2.600539e+03,1.144205e+03
2.601503e+03,1.146968e+03
2.602468e+03,1.151814e+03
2.603432e+03,1.154762e+03
2.604396e+03,1.145896e+03
2.605360e+03,1.135627e+03
2.606324e+03,1.129719e+03
2.607289e+03,1.129635e+03
2.608253e+03,1.136358e+03
2.609217e+03,1.144330e+03
2.610181e+03,1.150336e+03
2.611146e+03,1.154165e+03
2.612110e+03,1.155743e+03
2.613074e+03,1.148705e+03
2.614038e+03,1.135443e+03
2.615003e+03,1.130039e+03
2.615967e+03,1.129542e+03
2.616931e+03,1.132804e+03
2.617895e+03,1.137600e+03
2.618860e+03,1.142598e+03
2.619824e+03,1.144379e+03
2.620788e+03,1.141230e+03
2.621752e+03,1.138535e+03
2.622717e+03,1.140013e+03
2.623681e+03,1.144822e+03
2.624645e+03,1.151258e+03
2.625609e+03,1.148842e+03
2.626573e+03,1.139330e+03
2.627538e+03,1.137646e+03
2.628502e+03,1.138759e+03
2.629466e+03,1.132985e+03
2.630430e+03,1.124823e+03
2.631395e+03,1.116012e+03
2.632359e+03,1.115326e+03
2.633323e+03,1.130319e+03
2.634287e+03,1.135288e+03
2.635251e+03,1.125546e+03
2.636216e+03,1.122186e+03
2.637180e+03,1.128420e+03
2.638144e+03,1.135984e+03
2.639108e+03,1.142593e+03
2.640073e+03,1.145732e+03
2.641037e+03,1.144447e+03
2.642001e+03,1.126144e+03
2.642965e+03,1.114496e+03
2.643929e+03,1.123650e+03
2.644894e+03,1.133090e+03
2.645858e+03,1.127285e+03
2.646822e+03,1.125443e+03
2.647786e+03,1.127254e+03
2.648751e+03,1.125281e+03
2.649715e+03,1.119084e+03
2.650679e+03,1.122913e+03
2.651643e+03,1.128534e+03
2.652608e+03,1.121834e+03
2.653572e+03,1.112197e+03
2.654536e+03,1.117389e+03
2.655500e+03,1.117611e+03
2.656465e+03,1.103523e+03
2.657429e+03,1.100558e+03
2.658393e+03,1.117110e+03
2.659357e+03,1.119668e+03
2.660322e+03,1.107887e+03
2.661286e+03,1.105104e+03
2.662250e+03,1.107963e+03
2.663214e+03,1.102359e+03
2.664178e+03,1.097223e+03
2.665143e+03,1.107957e+03
2.666107e+03,1.118107e+03
2.667071e+03,1.118780e+03
2.668035e+03,1.120183e+03
2.669000e+03,1.128640e+03
2.669964e+03,1.126797e+03
2.670928e+03,1.116821e+03
2.671892e+03,1.119856e+03
2.672857e+03,1.132567e+03
2.673821e+03,1.124890e+03
2.674785e+03,1.112112e+03
2.675749e+03,1.112828e+03
2.676714e+03,1.117180e+03
2.677678e+03,1.112500e+03
2.678642e+03,1.110087e+03
2.679606e+03,1.112695e+03
2.680571e+03,1.115453e+03
2.681535e+03,1.116918e+03
2.682499e+03,1.112966e+03
2.683463e+03,1.104848e+03
2.684427e+03,1.100574e+03
2.685392e+03,1.099841e+03
2.686356e+03,1.104513e+03
2.687320e+03,1.106291e+03
2.688284e+03,1.096877e+03
2.689249e+03,1.089635e+03
2.690213e+03,1.086816e+03
2.691177e+03,1.086639e+03
2.692141e+03,1.090303e+03
2.693105e+03,1.090207e+03
2.694070e+03,1.088365e+03
2.695034e+03,1.088580e+03
2.695998e+03,1.090705e+03
2.696962e+03,1.096556e+03
2.697927e+03,1.101717e+03
2.698891e+03,1.103074e+03
2.699855e+03,1.101545e+03
2.700819e+03,1.097220e+03
2.701783e+03,1.100266e+03
2.702748e+03,1.108934e+03
2.703712e+03,1.107792e+03
2.704676e+03,1.099415e+03
2.705640e+03,1.092921e+03
2.706605e+03,1.090624e+03
2.707569e+03,1.094579e+03
2.708533e+03,1.098476e+03
2.709497e+03,1.099020e+03
2.710462e+03,1.097408e+03
2.711426e+03,1.094408e+03
2.712390e+03,1.093342e+03
2.713354e+03,1.093912e+03
2.714319e+03,1.096905e+03
2.715283e+03,1.099506e+03
2.716247e+03,1.093611e+03
2.717211e+03,1.086918e+03
2.718176e+03,1.084459e+03
2.719140e+03,1.086628e+03
2.720104e+03,1.097615e+03
2.721068e+03,1.094260e+03
2.722032e+03,1.075532e+03
2.722997e+03,1.071347e+03
2.723961e+03,1.078863e+03
2.724925e+03,1.084035e+03
2.725889e+03,1.086017e+03
2.726854e+03,1.080031e+03
2.727818e+03,1.079316e+03
2.728782e+03,1.091612e+03
2.729746e+03,1.094075e+03
2.730711e+03,1.065887e+03
2.731675e+03,1.059468e+03
2.732639e+03,1.070528e+03
2.733603e+03,1.071393e+03
2.734568e+03,1.066433e+03
2.735532e+03,1.076754e+03
2.736496e+03,1.085499e+03
2.737460e+03,1.080582e+03
2.738425e+03,1.074076e+03
2.739389e+03,1.073286e+03
2.740353e+03,1.067588e+03
2.741317e+03,1.057307e+03
2.742281e+03,1.062190e+03
2.743246e+03,1.077129e+03
2.744210e+03,1.082288e+03
2.745174e+03,1.080233e+03
2.746138e+03,1.075412e+03
2.747103e+03,1.069537e+03
2.748067e+03,1.063666e+03
2.749031e+03,1.061950e+03
2.749995e+03,1.067259e+03
2.750959e+03,1.074981e+03
2.751924e+03,1.081751e+03
2.752888e+03,1.074709e+03
2.753852e+03,1.061449e+03
2.754816e+03,1.057351e+03
2.755781e+03,1.060479e+03
2.756745e+03,1.071795e+03
2.757709e+03,1.075757e+03
2.758673e+03,1.066786e+03
2.759637e+03,1.062759e+03
2.760602e+03,1.066369e+03
2.761566e+03,1.064932e+03
2.762530e+03,1.061038e+03
2.763494e+03,1.055810e+03
2.764459e+03,1.051674e+03
2.765423e+03,1.050887e+03
2.766387e+03,1.058291e+03
2.767351e+03,1.074778e+03
2.768316e+03,1.076104e+03
2.769280e+03,1.058105e+03
2.770244e+03,1.053686e+03
2.771208e+03,1.058910e+03
2.772173e+03,1.063908e+03
2.773137e+03,1.062843e+03
2.774101e+03,1.046898e+03
2.775065e+03,1.035759e+03
2.776030e+03,1.037351e+03
2.776994e+03,1.042634e+03
2.777958e+03,1.047967e+03
2.778922e+03,1.042815e+03
2.779886e+03,1.033619e+03
2.780851e+03,1.042130e+03
2.781815e+03,1.047745e+03
2.782779e+03,1.035455e+03
2.783743e+03,1.033026e+03
2.784708e+03,1.063433e+03
2.785672e+03,1.073576e+03
2.786636e+03,1.060987e+03
2.787600e+03,1.051314e+03
2.788565e+03,1.046029e+03
2.789529e+03,1.041379e+03
2.790493e+03,1.041263e+03
2.791457e+03,1.057173e+03
2.792422e+03,1.057782e+03
2.793386e+03,1.039123e+03
2.794350e+03,1.030425e+03
2.795314e+03,1.038075e+03
2.796279e+03,1.035472e+03
2.797243e+03,1.030792e+03
2.798207e+03,1.041019e+03
2.799171e+03,1.052366e+03
2.800135e+03,1.043073e+03
2.801100e+03,1.037113e+03
2.802064e+03,1.040985e+03
2.803028e+03,1.032207e+03
2.803992e+03,1.014757e+03
2.804957e+03,1.025192e+03
2.805921e+03,1.047745e+03
2.806885e+03,1.051806e+03
2.807849e+03,1.047248e+03
2.808813e+03,1.040283e+03
2.809778e+03,1.033947e+03
2.810742e+03,1.029876e+03
2.811706e+03,1.028889e+03
2.812670e+03,1.029955e+03
2.813635e+03,1.033465e+03
2.814599e+03,1.036877e+03
2.815563e+03,1.034884e+03
2.816527e+03,1.034093e+03
2.817491e+03,1.038716e+03
2.818456e+03,1.038747e+03
2.819420e+03,1.033189e+03
2.820384e+03,1.032475e+03
2.821348e+03,1.036787e+03
2.822313e+03,1.041601e+03
2.823277e+03,1.040590e+03
2.824241e+03,1.028024e+03
2.825205e+03,1.017826e+03
2.826170e+03,1.019191e+03
2.827134e+03,1.028279e+03
2.828098e+03,1.041266e+03
2.829062e+03,1.038938e+03
2.830027e+03,1.029624e+03
2.830991e+03,1.035666e+03
2.831955e+03,1.041278e+03
2.832919e+03,1.026928e+03
2.833884e+03,1.017188e+03
2.834848e+03,1.015140e+03
2.835812e+03,1.013448e+03
2.836776e+03,1.012381e+03
2.837740e+03,1.028526e+03
2.838705e+03,1.045774e+03
2.839669e+03,1.046532e+03
2.840633e+03,1.041724e+03
2.841597e+03,1.037382e+03
2.842562e+03,1.033798e+03
2.843526e+03,1.032199e+03
2.844490e+03,1.030643e+03
2.845454e+03,1.028689e+03
2.846419e+03,1.026933e+03
2.847383e+03,1.026618e+03
2.848347e+03,1.027895e+03
2.849311e+03,1.036544e+03
2.850276e+03,1.052604e+03
2.851240e+03,1.051842e+03
2.852204e+03,1.036869e+03
2.853168e+03,1.029606e+03
2.854133e+03,1.028953e+03
2.855097e+03,1.037313e+03
2.856061e+03,1.043203e+03
2.857025e+03,1.041872e+03
2.857990e+03,1.039491e+03
2.858954e+03,1.038262e+03
2.859918e+03,1.040820e+03
2.860882e+03,1.041860e+03
2.861846e+03,1.032054e+03
2.862811e+03,1.020846e+03
2.863775e+03,1.014806e+03
2.864739e+03,1.020810e+03
2.865703e+03,1.042031e+03
2.866667e+03,1.040909e+03
2.867632e+03,1.027017e+03
2.868596e+03,1.033046e+03
2.869560e+03,1.042771e+03
2.870524e+03,1.039561e+03
2.871489e+03,1.025768e+03
2.872453e+03,1.001970e+03
2.873417e+03,9.999628e+02
2.874381e+03,1.016830e+03
2.875345e+03,1.025401e+03
2.876310e+03,1.029090e+03
2.877274e+03,1.031770e+03
2.878238e+03,1.032651e+03
2.879202e+03,1.030980e+03
2.880167e+03,1.029579e+03
2.881131e+03,1.030714e+03
2.882095e+03,1.019491e+03
2.883059e+03,1.010640e+03
2.884024e+03,1.029381e+03
2.884988e+03,1.045475e+03
2.885952e+03,1.027339e+03
2.886916e+03,1.018283e+03
2.887881e+03,1.029930e+03
2.888845e+03,1.026319e+03
2.889809e+03,1.017467e+03
2.890773e+03,1.029835e+03
2.891738e+03,1.045146e+03
2.892702e+03,1.047674e+03
2.893666e+03,1.038809e+03
2.894630e+03,1.020632e+03
2.895594e+03,1.030090e+03
2.896559e+03,1.057277e+03
2.897523e+03,1.049928e+03
2.898487e+03,1.034693e+03
2.899451e+03,1.045121e+03
2.900416e+03,1.045190e+03
2.901380e+03,1.027661e+03
2.902344e+03,1.021108e+03
2.903308e+03,1.027613e+03
2.904273e+03,1.019137e+03
2.905237e+03,1.005883e+03
2.906201e+03,9.976399e+02
2.907165e+03,9.960087e+02
2.908130e+03,1.001233e+03
2.909094e+03,1.003280e+03
2.910058e+03,1.001250e+03
2.911022e+03,1.007344e+03
2.911987e+03,1.015365e+03
2.912951e+03,1.017882e+03
2.913915e+03,1.015908e+03
2.914879e+03,1.006096e+03
2.915844e+03,1.011446e+03
2.916808e+03,1.029954e+03
2.917772e+03,1.027727e+03
2.918736e+03,1.018752e+03
2.919700e+03,1.025594e+03
2.920665e+03,1.033818e+03
2.921629e+03,1.038058e+03
2.922593e+03,1.024446e+03
2.923557e+03,1.001143e+03
2.924521e+03,1.007491e+03
2.925486e+03,1.027829e+03
2.926450e+03,1.025820e+03
2.927414e+03,1.020054e+03
2.928378e+03,1.017600e+03
2.929343e+03,1.016795e+03
2.930307e+03,1.015914e+03
2.931271e+03,1.007529e+03
2.932235e+03,9.989946e+02
2.933199e+03,1.004949e+03
2.934164e+03,1.010224e+03
2.935128e+03,1.007033e+03
2.936092e+03,1.015629e+03
2.937056e+03,1.033977e+03
2.938021e+03,1.022438e+03
2.938985e+03,1.001903e+03
2.939949e+03,1.009595e+03
2.940913e+03,1.015961e+03
2.941878e+03,1.011235e+03
2.942842e+03,9.987448e+02
2.943806e+03,9.804597e+02
2.944770e+03,9.887444e+02
2.945735e+03,1.007464e+03
2.946699e+03,1.015763e+03
2.947663e+03,1.016271e+03
2.948627e+03,1.009852e+03
2.949592e+03,1.018671e+03
2.950556e+03,1.042445e+03
2.951520e+03,1.015171e+03
2.952484e+03,9.843519e+02
2.953448e+03,1.000862e+03
2.954413e+03,1.021061e+03
2.955377e+03,1.026453e+03
2.956341e+03,1.033849e+03
2.957305e+03,1.042869e+03
2.958270e+03,1.042385e+03
2.959234e+03,1.034737e+03
2.960198e+03,1.025241e+03
2.961162e+03,1.016004e+03
2.962127e+03,1.005167e+03
2.963091e+03,9.953812e+02
2.964055e+03,9.863574e+02
2.965019e+03,9.792519e+02
2.965984e+03,9.779321e+02
2.966948e+03,9.841701e+02
2.967912e+03,9.844655e+02
2.968876e+03,9.696014e+02
2.969841e+03,9.754957e+02
2.970805e+03,9.895498e+02
2.971769e+03,9.863738e+02
2.972733e+03,9.823516e+02
2.973698e+03,9.907108e+02
2.974662e+03,9.915178e+02
2.975626e+03,9.794891e+02
2.976590e+03,9.835594e+02
2.977554e+03,9.940535e+02
2.978519e+03,9.978382e+02
2.979483e+03,9.922733e+02
2.980447e+03,9.732980e+02
2.981411e+03,9.711723e+02
2.982375e+03,9.876270e+02
2.983340e+03,9.940755e+02
2.984304e+03,9.884027e+02
2.985268e+03,9.678481e+02
2.986232e+03,9.554821e+02
2.987197e+03,9.677704e+02
2.988161e+03,9.718672e+02
2.989125e+03,9.688934e+02
2.990089e+03,9.647991e+02
2.991053e+03,9.656630e+02
2.992018e+03,9.766832e+02
2.992982e+03,9.851056e+02
2.993946e+03,9.878263e+02
2.994910e+03,9.751588e+02
2.995875e+03,9.648045e+02
2.996839e+03,9.888931e+02
2.997803e+03,9.977596e+02
2.998767e+03,9.581406e+02
2.999732e+03,9.425646e+02
3.000696e+03,9.638978e+02
3.001660e+03,9.683256e+02
3.002624e+03,9.615516e+02
3.003589e+03,9.504009e+02
3.004553e+03,9.480236e+02
3.005517e+03,9.620637e+02
3.006481e+03,9.663013e+02
3.007446e+03,9.592903e+02
3.008410e+03,9.493871e+02
3.009374e+03,9.445887e+02
3.010338e+03,9.499703e+02
3.011302e+03,9.580123e+02
3.012267e+03,9.643086e+02
3.013231e+03,9.727224e+02
3.014195e+03,9.801397e+02
3.015159e+03,9.826064e+02
3.016124e+03,9.821833e+02
3.017088e+03,9.797844e+02
3.018052e+03,9.767093e+02
3.019016e+03,9.720770e+02
3.019981e+03,9.612173e+02
3.020945e+03,9.547908e+02
3.021909e+03,9.619512e+02
3.022873e+03,9.727050e+02
3.023838e+03,9.823284e+02
3.024802e+03,9.759786e+02
3.025766e+03,9.592567e+02
3.026730e+03,9.357117e+02
3.027695e+03,9.320849e+02
3.028659e+03,9.598956e+02
3.029623e+03,9.740920e+02
3.030587e+03,9.715597e+02
3.031552e+03,9.609872e+02
3.032516e+03,9.518538e+02
3.033480e+03,9.587205e+02
3.034444e+03,9.679172e+02
3.035408e+03,9.758790e+02
3.036373e+03,9.679828e+02
3.037337e+03,9.556357e+02
3.038301e+03,9.917017e+02
3.039265e+03,1.011865e+03
3.040229e+03,9.562174e+02
3.041194e+03,9.512009e+02
3.042158e+03,9.827515e+02
3.043122e+03,9.726949e+02
3.044086e+03,9.511788e+02
3.045051e+03,9.645886e+02
3.046015e+03,9.713348e+02
3.046979e+03,9.599729e+02
3.047943e+03,9.478226e+02
3.048907e+03,9.479170e+02
3.049872e+03,9.821323e+02
3.050836e+03,1.000055e+03
3.051800e+03,9.605741e+02
3.052764e+03,9.591688e+02
3.053729e+03,9.929962e+02
3.054693e+03,9.880320e+02
3.055657e+03,9.742941e+02
3.056621e+03,9.730199e+02
3.057586e+03,9.715111e+02
3.058550e+03,9.663006e+02
3.059514e+03,9.530281e+02
3.060478e+03,9.420866e+02
3.061443e+03,9.519133e+02
3.062407e+03,9.572013e+02
3.063371e+03,9.515629e+02
3.064335e+03,9.511617e+02
3.065300e+03,9.566600e+02
3.066264e+03,9.598542e+02
3.067228e+03,9.637800e+02
3.068192e+03,9.702615e+02
3.069156e+03,9.707006e+02
3.070121e+03,9.681501e+02
3.071085e+03,9.852288e+02
3.072049e+03,9.990640e+02
3.073013e+03,9.580775e+02
3.073978e+03,9.460098e+02
3.074942e+03,9.778243e+02
3.075906e+03,9.550272e+02
3.076870e+03,9.191419e+02
3.077835e+03,9.408273e+02
3.078799e+03,9.682994e+02
3.079763e+03,9.699382e+02
3.080727e+03,9.641926e+02
3.081692e+03,9.548170e+02
3.082656e+03,9.494559e+02
3.083620e+03,9.389135e+02
3.084584e+03,9.177542e+02
3.085549e+03,9.336789e+02
3.086513e+03,9.919345e+02
3.087477e+03,9.787330e+02
3.088441e+03,9.475505e+02
3.089406e+03,9.602893e+02
3.090370e+03,9.680585e+02
3.091334e+03,9.625680e+02
3.092298e+03,9.536575e+02
3.093262e+03,9.462891e+02
3.094227e+03,9.520741e+02
3.095191e+03,9.519744e+02
3.096155e+03,9.386208e+02
3.097119e+03,9.435000e+02
3.098083e+03,9.575763e+02
3.099048e+03,9.571570e+02
3.100012e+03,9.565566e+02
3.100976e+03,9.691047e+02
3.101940e+03,9.729932e+02
3.102905e+03,9.647273e+02
3.103869e+03,9.401685e+02
3.104833e+03,9.215682e+02
3.105797e+03,9.223251e+02
3.106761e+03,9.280748e+02
3.107726e+03,9.349666e+02
3.108690e+03,9.404467e+02
3.109654e+03,9.426769e+02
3.110618e+03,9.377537e+02
3.111583e+03,9.346073e+02
3.112547e+03,9.358391e+02
3.113511e+03,9.450438e+02
3.114475e+03,9.579611e+02
3.115440e+03,9.696493e+02
3.116404e+03,9.768363e+02
3.117368e+03,9.795512e+02
3.118332e+03,9.602206e+02
3.119297e+03,9.362394e+02
3.120261e+03,9.359064e+02
3.121225e+03,9.426356e+02
3.122189e+03,9.460085e+02
3.123154e+03,9.587655e+02
3.124118e+03,9.780612e+02
3.125082e+03,9.989559e+02
3.126046e+03,1.006215e+03
3.127010e+03,9.937050e+02
3.127975e+03,9.700596e+02
3.128939e+03,9.447366e+02
3.129903e+03,9.579058e+02
3.130867e+03,9.696035e+02
3.131832e+03,9.261847e+02
3.132796e+03,9.282384e+02
3.133760e+03,9.693660e+02
3.134724e+03,9.734391e+02
3.135689e+03,9.689113e+02
3.136653e+03,9.861603e+02
3.137617e+03,9.946900e+02
3.138581e+03,9.859056e+02
3.139546e+03,9.747105e+02
3.140510e+03,9.701234e+02
3.141474e+03,9.906588e+02
3.142438e+03,9.757791e+02
3.143403e+03,9.280988e+02
3.144367e+03,9.458860e+02
3.145331e+03,9.863749e+02
3.146295e+03,9.786024e+02
3.147260e+03,9.481424e+02
3.148224e+03,9.013328e+02
3.149188e+03,9.321683e+02
3.150152e+03,9.771325e+02
3.151116e+03,9.485170e+02
3.152081e+03,9.264083e+02
3.153045e+03,9.443497e+02
3.154009e+03,9.709347e+02
3.154973e+03,9.909575e+02
3.155938e+03,9.691719e+02
3.156902e+03,9.550840e+02
3.157866e+03,9.593995e+02
3.158830e+03,9.408567e+02
3.159794e+03,9.196445e+02
3.160759e+03,9.614875e+02
3.161723e+03,9.977171e+02
3.162687e+03,9.856966e+02
3.163651e+03,9.872421e+02
3.164615e+03,9.990717e+02
3.165580e+03,1.016229e+03
3.166544e+03,1.006931e+03
3.167508e+03,9.641962e+02
3.168472e+03,9.608519e+02
3.169437e+03,9.862055e+02
3.170401e+03,9.887733e+02
3.171365e+03,9.784189e+02
3.172329e+03,9.593148e+02
3.173294e+03,9.507806e+02
3.174258e+03,9.527960e+02
3.175222e+03,9.628146e+02
3.176186e+03,9.707328e+02
3.177151e+03,9.723091e+02
3.178115e+03,9.755817e+02
3.179079e+03,9.796993e+02
3.180043e+03,9.761860e+02
3.181008e+03,9.808030e+02
3.181972e+03,9.987829e+02
3.182936e+03,9.819308e+02
3.183900e+03,9.462634e+02
3.184865e+03,9.512756e+02
3.185829e+03,9.669734e+02
3.186793e+03,9.912048e+02
3.187757e+03,9.879688e+02
3.188721e+03,9.682428e+02
3.189686e+03,9.564392e+02
3.190650e+03,9.593522e+02
3.191614e+03,9.754844e+02
3.192578e+03,9.788427e+02
3.193543e+03,9.752199e+02
3.194507e+03,9.970458e+02
3.195471e+03,1.010676e+03
3.196435e+03,9.996281e+02
3.197400e+03,9.944050e+02
3.198364e+03,9.984484e+02
3.199328e+03,1.017218e+03
3.200292e+03,1.020078e+03
