1.995979e+02,1.916116e+03
2.005621e+02,1.918385e+03
2.015264e+02,1.921150e+03
2.024906e+02,1.925526e+03
2.034548e+02,1.929365e+03
2.044191e+02,1.931911e+03
2.053833e+02,1.932789e+03
2.063475e+02,1.932065e+03
2.073118e+02,1.930220e+03
2.082760e+02,1.927790e+03
2.092402e+02,1.922421e+03
2.102045e+02,1.910451e+03
2.111687e+02,1.898690e+03
2.121329e+02,1.892160e+03
2.130972e+02,1.893161e+03
2.140614e+02,1.898972e+03
2.150256e+02,1.903624e+03
2.159899e+02,1.906969e+03
2.169541e+02,1.909657e+03
2.179183e+02,1.912846e+03
2.188826e+02,1.915969e+03
2.198468e+02,1.917713e+03
2.208110e+02,1.915949e+03
2.217753e+02,1.910584e+03
2.227395e+02,1.906435e+03
2.237037e+02,1.906332e+03
2.246680e+02,1.907996e+03
2.256322e+02,1.908715e+03
2.265964e+02,1.907778e+03
2.275607e+02,1.907514e+03
2.285249e+02,1.911405e+03
2.294891e+02,1.920482e+03
2.304534e+02,1.928840e+03
2.314176e+02,1.930605e+03
2.323818e+02,1.926797e+03
2.333461e+02,1.922288e+03
2.343103e+02,1.918653e+03
2.352745e+02,1.915700e+03
2.362388e+02,1.912489e+03
2.372030e+02,1.908161e+03
2.381672e+02,1.902875e+03
2.391315e+02,1.898268e+03
2.400957e+02,1.895820e+03
2.410599e+02,1.893841e+03
2.420242e+02,1.891083e+03
2.429884e+02,1.888633e+03
2.439526e+02,1.889143e+03
2.449169e+02,1.894260e+03
2.458811e+02,1.904373e+03
2.468453e+02,1.912457e+03
2.478096e+02,1.917405e+03
2.487738e+02,1.921286e+03
2.497380e+02,1.925455e+03
2.507023e+02,1.930209e+03
2.516665e+02,1.935116e+03
2.526307e+02,1.939308e+03
2.535950e+02,1.940830e+03
2.545592e+02,1.942299e+03
2.555234e+02,1.946225e+03
2.564877e+02,1.950142e+03
2.574519e+02,1.951088e+03
2.584161e+02,1.947365e+03
2.593804e+02,1.939676e+03
2.603446e+02,1.932500e+03
2.613088e+02,1.922726e+03
2.622731e+02,1.915213e+03
2.632373e+02,1.912581e+03
2.642015e+02,1.913798e+03
2.651658e+02,1.915303e+03
2.661300e+02,1.914535e+03
2.670942e+02,1.912009e+03
2.680585e+02,1.907877e+03
2.690227e+02,1.898544e+03
2.699869e+02,1.889078e+03
2.709512e+02,1.883333e+03
2.719154e+02,1.884100e+03
2.728796e+02,1.888152e+03
2.738439e+02,1.891673e+03
2.748081e+02,1.895531e+03
2.757723e+02,1.898014e+03
2.767366e+02,1.894382e+03
2.777008e+02,1.885576e+03
2.786650e+02,1.878189e+03
2.796293e+02,1.874989e+03
2.805935e+02,1.875196e+03
2.815577e+02,1.877628e+03
2.825220e+02,1.882576e+03
2.834862e+02,1.887807e+03
2.844504e+02,1.889442e+03
2.854147e+02,1.886562e+03
2.863789e+02,1.883204e+03
2.873431e+02,1.880658e+03
2.883074e+02,1.879089e+03
2.892716e+02,1.878218e+03
2.902358e+02,1.877596e+03
2.912001e+02,1.876981e+03
2.921643e+02,1.875837e+03
2.931285e+02,1.874323e+03
2.940928e+02,1.873000e+03
2.950570e+02,1.871469e+03
2.960212e+02,1.869588e+03
2.969855e+02,1.867952e+03
2.979497e+02,1.868318e+03
2.989139e+02,1.873537e+03
2.998782e+02,1.874653e+03
3.008424e+02,1.869341e+03
3.018066e+02,1.862457e+03
3.027709e+02,1.856650e+03
3.037351e+02,1.852468e+03
3.046993e+02,1.849652e+03
3.056636e+02,1.848214e+03
3.066278e+02,1.848556e+03
3.075920e+02,1.850358e+03
3.085563e+02,1.855440e+03
3.095205e+02,1.862437e+03
3.104847e+02,1.867071e+03
3.114490e+02,1.864570e+03
3.124132e+02,1.858017e+03
3.133774e+02,1.854246e+03
3.143417e+02,1.854348e+03
3.153059e+02,1.856196e+03
3.162701e+02,1.858555e+03
3.172344e+02,1.863526e+03
3.181986e+02,1.865734e+03
3.191628e+02,1.860094e+03
3.201271e+02,1.850774e+03
3.210913e+02,1.846077e+03
3.220555e+02,1.850314e+03
3.230198e+02,1.861644e+03
3.239840e+02,1.868580e+03
3.249482e+02,1.868134e+03
3.259125e+02,1.866407e+03
3.268767e+02,1.865483e+03
3.278409e+02,1.865021e+03
3.288052e+02,1.863463e+03
3.297694e+02,1.858611e+03
3.307336e+02,1.849241e+03
3.316979e+02,1.843062e+03
3.326621e+02,1.843550e+03
3.336263e+02,1.844574e+03
3.345906e+02,1.843163e+03
3.355548e+02,1.839129e+03
3.365190e+02,1.835068e+03
3.374833e+02,1.833387e+03
3.384475e+02,1.834081e+03
3.394117e+02,1.835862e+03
3.403760e+02,1.838724e+03
3.413402e+02,1.841729e+03
3.423044e+02,1.843418e+03
3.432687e+02,1.841603e+03
3.442329e+02,1.839385e+03
3.451971e+02,1.839887e+03
3.461614e+02,1.842707e+03
3.471256e+02,1.844572e+03
3.480898e+02,1.843346e+03
3.490541e+02,1.838422e+03
3.500183e+02,1.834135e+03
3.509825e+02,1.831211e+03
3.519468e+02,1.829373e+03
3.529110e+02,1.828109e+03
3.538752e+02,1.826923e+03
3.548395e+02,1.825494e+03
3.558037e+02,1.823709e+03
3.567679e+02,1.820921e+03
3.577322e+02,1.819051e+03
3.586964e+02,1.818971e+03
3.596606e+02,1.820371e+03
3.606249e+02,1.822458e+03
3.615891e+02,1.824422e+03
3.625533e+02,1.825576e+03
3.635176e+02,1.825496e+03
3.644818e+02,1.824316e+03
3.654460e+02,1.823457e+03
3.664103e+02,1.825402e+03
3.673745e+02,1.830331e+03
3.683387e+02,1.834249e+03
3.693030e+02,1.833012e+03
3.702672e+02,1.829426e+03
3.712314e+02,1.828302e+03
3.721957e+02,1.830611e+03
3.731599e+02,1.834454e+03
3.741241e+02,1.837661e+03
3.750884e+02,1.844067e+03
3.760526e+02,1.846814e+03
3.770168e+02,1.842417e+03
3.779811e+02,1.834470e+03
3.789453e+02,1.827018e+03
3.799095e+02,1.821774e+03
3.808738e+02,1.818309e+03
3.818380e+02,1.815732e+03
3.828022e+02,1.816035e+03
3.837665e+02,1.816244e+03
3.847307e+02,1.815031e+03
3.856949e+02,1.812759e+03
3.866592e+02,1.810294e+03
3.876234e+02,1.806890e+03
3.885876e+02,1.803414e+03
3.895519e+02,1.803398e+03
3.905161e+02,1.808642e+03
3.914803e+02,1.813823e+03
3.924446e+02,1.812402e+03
3.934088e+02,1.803257e+03
3.943730e+02,1.795528e+03
3.953373e+02,1.792243e+03
3.963015e+02,1.791499e+03
3.972657e+02,1.791024e+03
3.982300e+02,1.790369e+03
3.991942e+02,1.789688e+03
4.001584e+02,1.787869e+03
4.011227e+02,1.780849e+03
4.020869e+02,1.776034e+03
4.030511e+02,1.775064e+03
4.040154e+02,1.776055e+03
4.049796e+02,1.776637e+03
4.059438e+02,1.774535e+03
4.069081e+02,1.771015e+03
4.078723e+02,1.771685e+03
4.088365e+02,1.778891e+03
4.098008e+02,1.784822e+03
4.107650e+02,1.784133e+03
4.117292e+02,1.777661e+03
4.126935e+02,1.772551e+03
4.136577e+02,1.771894e+03
4.146219e+02,1.773805e+03
4.155862e+02,1.776192e+03
4.165504e+02,1.778849e+03
4.175146e+02,1.780782e+03
4.184789e+02,1.780281e+03
4.194431e+02,1.773592e+03
4.204073e+02,1.768776e+03
4.213716e+02,1.767417e+03
4.223358e+02,1.767387e+03
4.233000e+02,1.766305e+03
4.242643e+02,1.763015e+03
4.252285e+02,1.758913e+03
4.261927e+02,1.757198e+03
4.271570e+02,1.758985e+03
4.281212e+02,1.761116e+03
4.290854e+02,1.760876e+03
4.300497e+02,1.759516e+03
4.310139e+02,1.760392e+03
4.319781e+02,1.768239e+03
4.329424e+02,1.777518e+03
4.339066e+02,1.781786e+03
4.348708e+02,1.780293e+03
4.358351e+02,1.774618e+03
4.367993e+02,1.765420e+03
4.377635e+02,1.748988e+03
4.387278e+02,1.739654e+03
4.396920e+02,1.743255e+03
4.406563e+02,1.750211e+03
4.416205e+02,1.753621e+03
4.425847e+02,1.751661e+03
4.435490e+02,1.747495e+03
4.445132e+02,1.745383e+03
4.454774e+02,1.745855e+03
4.464417e+02,1.747296e+03
4.474059e+02,1.751161e+03
4.483701e+02,1.754464e+03
4.493344e+02,1.753649e+03
4.502986e+02,1.743597e+03
4.512628e+02,1.734357e+03
4.522271e+02,1.734453e+03
4.531913e+02,1.742165e+03
4.541555e+02,1.749689e+03
4.551198e+02,1.752293e+03
4.560840e+02,1.750035e+03
4.570482e+02,1.747819e+03
4.580125e+02,1.748611e+03
4.589767e+02,1.748206e+03
4.599409e+02,1.742638e+03
4.609052e+02,1.732798e+03
4.618694e+02,1.723879e+03
4.628336e+02,1.721555e+03
4.637979e+02,1.725140e+03
4.647621e+02,1.726694e+03
4.657263e+02,1.725833e+03
4.666906e+02,1.723751e+03
4.676548e+02,1.720329e+03
4.686190e+02,1.714294e+03
4.695833e+02,1.710088e+03
4.705475e+02,1.709458e+03
4.715117e+02,1.711162e+03
4.724760e+02,1.713249e+03
4.734402e+02,1.715059e+03
4.744044e+02,1.717979e+03
4.753687e+02,1.725273e+03
4.763329e+02,1.740142e+03
4.772971e+02,1.754734e+03
4.782614e+02,1.768969e+03
4.792256e+02,1.782120e+03
4.801898e+02,1.793601e+03
4.811541e+02,1.806732e+03
4.821183e+02,1.814790e+03
4.830825e+02,1.803950e+03
4.840468e+02,1.772852e+03
4.850110e+02,1.742627e+03
4.859752e+02,1.726424e+03
4.869395e+02,1.725270e+03
4.879037e+02,1.723870e+03
4.888679e+02,1.721945e+03
4.898322e+02,1.720371e+03
4.907964e+02,1.720342e+03
4.917606e+02,1.721597e+03
4.927249e+02,1.722389e+03
4.936891e+02,1.720918e+03
4.946533e+02,1.717023e+03
4.956176e+02,1.712239e+03
4.965818e+02,1.704804e+03
4.975460e+02,1.698477e+03
4.985103e+02,1.696715e+03
4.994745e+02,1.700649e+03
5.004387e+02,1.702878e+03
5.014030e+02,1.698715e+03
5.023672e+02,1.691619e+03
5.033314e+02,1.686959e+03
5.042957e+02,1.686292e+03
5.052599e+02,1.688516e+03
5.062241e+02,1.692155e+03
5.071884e+02,1.701512e+03
5.081526e+02,1.706227e+03
5.091168e+02,1.702642e+03
5.100811e+02,1.695546e+03
5.110453e+02,1.689975e+03
5.120095e+02,1.688246e+03
5.129738e+02,1.688803e+03
5.139380e+02,1.690392e+03
5.149022e+02,1.693034e+03
5.158665e+02,1.694754e+03
5.168307e+02,1.693931e+03
5.177949e+02,1.689750e+03
5.187592e+02,1.684063e+03
5.197234e+02,1.675997e+03
5.206876e+02,1.669979e+03
5.216519e+02,1.669103e+03
5.226161e+02,1.672231e+03
5.235803e+02,1.675448e+03
5.245446e+02,1.674809e+03
5.255088e+02,1.671075e+03
5.264730e+02,1.670273e+03
5.274373e+02,1.674087e+03
5.284015e+02,1.678046e+03
5.293657e+02,1.677747e+03
5.303300e+02,1.673110e+03
5.312942e+02,1.667462e+03
5.322584e+02,1.660426e+03
5.332227e+02,1.654298e+03
5.341869e+02,1.651071e+03
5.351511e+02,1.650790e+03
5.361154e+02,1.651885e+03
5.370796e+02,1.653140e+03
5.380438e+02,1.655347e+03
5.390081e+02,1.655358e+03
5.399723e+02,1.650058e+03
5.409365e+02,1.644288e+03
5.419008e+02,1.642295e+03
5.428650e+02,1.645541e+03
5.438292e+02,1.649349e+03
5.447935e+02,1.651194e+03
5.457577e+02,1.651895e+03
5.467219e+02,1.653497e+03
5.476862e+02,1.657120e+03
5.486504e+02,1.661474e+03
5.496146e+02,1.662799e+03
5.505789e+02,1.659881e+03
5.515431e+02,1.655459e+03
5.525073e+02,1.649311e+03
5.534716e+02,1.643422e+03
5.544358e+02,1.639839e+03
5.554000e+02,1.639662e+03
5.563643e+02,1.640836e+03
5.573285e+02,1.641831e+03
5.582927e+02,1.642410e+03
5.592570e+02,1.642061e+03
5.602212e+02,1.640361e+03
5.611854e+02,1.637207e+03
5.621497e+02,1.636008e+03
5.631139e+02,1.638739e+03
5.640781e+02,1.640833e+03
5.650424e+02,1.642190e+03
5.660066e+02,1.642549e+03
5.669708e+02,1.640957e+03
5.679351e+02,1.635001e+03
5.688993e+02,1.627556e+03
5.698635e+02,1.624203e+03
5.708278e+02,1.625701e+03
5.717920e+02,1.628470e+03
5.727562e+02,1.628609e+03
5.737205e+02,1.623954e+03
5.746847e+02,1.622721e+03
5.756489e+02,1.628408e+03
5.766132e+02,1.633955e+03
5.775774e+02,1.634763e+03
5.785416e+02,1.630566e+03
5.795059e+02,1.626717e+03
5.804701e+02,1.628255e+03
5.814343e+02,1.633570e+03
5.823986e+02,1.637604e+03
5.833628e+02,1.639508e+03
5.843270e+02,1.640236e+03
5.852913e+02,1.640982e+03
5.862555e+02,1.642603e+03
5.872197e+02,1.642869e+03
5.881840e+02,1.639436e+03
5.891482e+02,1.635704e+03
5.901124e+02,1.635091e+03
5.910767e+02,1.639012e+03
5.920409e+02,1.643267e+03
5.930051e+02,1.642803e+03
5.939694e+02,1.638357e+03
5.949336e+02,1.635258e+03
5.958978e+02,1.635861e+03
5.968621e+02,1.637763e+03
5.978263e+02,1.635494e+03
5.987905e+02,1.623382e+03
5.997548e+02,1.614226e+03
6.007190e+02,1.611471e+03
6.016832e+02,1.611627e+03
6.026475e+02,1.610070e+03
6.036117e+02,1.603719e+03
6.045759e+02,1.596332e+03
6.055402e+02,1.592289e+03
6.065044e+02,1.591140e+03
6.074686e+02,1.591068e+03
6.084329e+02,1.591963e+03
6.093971e+02,1.593598e+03
6.103613e+02,1.594072e+03
6.113256e+02,1.591376e+03
6.122898e+02,1.589844e+03
6.132540e+02,1.591880e+03
6.142183e+02,1.595313e+03
6.151825e+02,1.596550e+03
6.161467e+02,1.592547e+03
6.171110e+02,1.587164e+03
6.180752e+02,1.585079e+03
6.190394e+02,1.585837e+03
6.200037e+02,1.586385e+03
6.209679e+02,1.584561e+03
6.219321e+02,1.580790e+03
6.228964e+02,1.579476e+03
6.238606e+02,1.583142e+03
6.248248e+02,1.586389e+03
6.257891e+02,1.587509e+03
6.267533e+02,1.586254e+03
6.277175e+02,1.583246e+03
6.286818e+02,1.576893e+03
6.296460e+02,1.570826e+03
6.306102e+02,1.569452e+03
6.315745e+02,1.572618e+03
6.325387e+02,1.577049e+03
6.335029e+02,1.580017e+03
6.344672e+02,1.581220e+03
6.354314e+02,1.582955e+03
6.363956e+02,1.585383e+03
6.373599e+02,1.587366e+03
6.383241e+02,1.590239e+03
6.392883e+02,1.593673e+03
6.402526e+02,1.592717e+03
6.412168e+02,1.580809e+03
6.421810e+02,1.566821e+03
6.431453e+02,1.559505e+03
6.441095e+02,1.558950e+03
6.450737e+02,1.560088e+03
6.460380e+02,1.558201e+03
6.470022e+02,1.553508e+03
6.479664e+02,1.551320e+03
6.489307e+02,1.551906e+03
6.498949e+02,1.553771e+03
6.508591e+02,1.555942e+03
6.518234e+02,1.558276e+03
6.527876e+02,1.560103e+03
6.537518e+02,1.562362e+03
6.547161e+02,1.563601e+03
6.556803e+02,1.562269e+03
6.566445e+02,1.558537e+03
6.576088e+02,1.554297e+03
6.585730e+02,1.551162e+03
6.595372e+02,1.548979e+03
6.605015e+02,1.546833e+03
6.614657e+02,1.544616e+03
6.624299e+02,1.542563e+03
6.633942e+02,1.540602e+03
6.643584e+02,1.537453e+03
6.653226e+02,1.537744e+03
6.662869e+02,1.544439e+03
6.672511e+02,1.551767e+03
6.682153e+02,1.554819e+03
6.691796e+02,1.552968e+03
6.701438e+02,1.553449e+03
6.711080e+02,1.560070e+03
6.720723e+02,1.572898e+03
6.730365e+02,1.592589e+03
6.740007e+02,1.619474e+03
6.749650e+02,1.652356e+03
6.759292e+02,1.694646e+03
6.768934e+02,1.759621e+03
6.778577e+02,1.795178e+03
6.788219e+02,1.789495e+03
6.797861e+02,1.762864e+03
6.807504e+02,1.722693e+03
6.817146e+02,1.664910e+03
6.826788e+02,1.616008e+03
6.836431e+02,1.588583e+03
6.846073e+02,1.573172e+03
6.855715e+02,1.560413e+03
6.865358e+02,1.548734e+03
6.875000e+02,1.540549e+03
6.884642e+02,1.540806e+03
6.894285e+02,1.549451e+03
6.903927e+02,1.553244e+03
6.913569e+02,1.549216e+03
6.923212e+02,1.541899e+03
6.932854e+02,1.536190e+03
6.942496e+02,1.533029e+03
6.952139e+02,1.531099e+03
6.961781e+02,1.529468e+03
6.971423e+02,1.529303e+03
6.981066e+02,1.532344e+03
6.990708e+02,1.538302e+03
7.000350e+02,1.542064e+03
7.009993e+02,1.539783e+03
7.019635e+02,1.533672e+03
7.029277e+02,1.526813e+03
7.038920e+02,1.519479e+03
7.048562e+02,1.513232e+03
7.058204e+02,1.511140e+03
7.067847e+02,1.515817e+03
7.077489e+02,1.517731e+03
7.087131e+02,1.515583e+03
7.096774e+02,1.512783e+03
7.106416e+02,1.510832e+03
7.116058e+02,1.509671e+03
7.125701e+02,1.508111e+03
7.135343e+02,1.504821e+03
7.144985e+02,1.502141e+03
7.154628e+02,1.502643e+03
7.164270e+02,1.506351e+03
7.173912e+02,1.510020e+03
7.183555e+02,1.510403e+03
7.193197e+02,1.507926e+03
7.202839e+02,1.504936e+03
7.212482e+02,1.501866e+03
7.222124e+02,1.498760e+03
7.231766e+02,1.495133e+03
7.241409e+02,1.489353e+03
7.251051e+02,1.486397e+03
7.260693e+02,1.489283e+03
7.270336e+02,1.492437e+03
7.279978e+02,1.492966e+03
7.289620e+02,1.490498e+03
7.299263e+02,1.487980e+03
7.308905e+02,1.486802e+03
7.318547e+02,1.485837e+03
7.328190e+02,1.483369e+03
7.337832e+02,1.479514e+03
7.347474e+02,1.476700e+03
7.357117e+02,1.476510e+03
7.366759e+02,1.479441e+03
7.376401e+02,1.487525e+03
7.386044e+02,1.500189e+03
7.395686e+02,1.520271e+03
7.405328e+02,1.550538e+03
7.414971e+02,1.593230e+03
7.424613e+02,1.636641e+03
7.434255e+02,1.701287e+03
7.443898e+02,1.750446e+03
7.453540e+02,1.763754e+03
7.463182e+02,1.741146e+03
7.472825e+02,1.701990e+03
7.482467e+02,1.640107e+03
7.492109e+02,1.575357e+03
7.501752e+02,1.528945e+03
7.511394e+02,1.501814e+03
7.521036e+02,1.485648e+03
7.530679e+02,1.474648e+03
7.540321e+02,1.468188e+03
7.549963e+02,1.465660e+03
7.559606e+02,1.468521e+03
7.569248e+02,1.471514e+03
7.578890e+02,1.471224e+03
7.588533e+02,1.467594e+03
7.598175e+02,1.465120e+03
7.607817e+02,1.464478e+03
7.617460e+02,1.461887e+03
7.627102e+02,1.454198e+03
7.636744e+02,1.444188e+03
7.646387e+02,1.438836e+03
7.656029e+02,1.444200e+03
7.665671e+02,1.452611e+03
7.675314e+02,1.457554e+03
7.684956e+02,1.458680e+03
7.694598e+02,1.458173e+03
7.704241e+02,1.458293e+03
7.713883e+02,1.458956e+03
7.723525e+02,1.457780e+03
7.733168e+02,1.454665e+03
7.742810e+02,1.454006e+03
7.752452e+02,1.457775e+03
7.762095e+02,1.464470e+03
7.771737e+02,1.468451e+03
7.781379e+02,1.467999e+03
7.791022e+02,1.465680e+03
7.800664e+02,1.462245e+03
7.810306e+02,1.458020e+03
7.819949e+02,1.453339e+03
7.829591e+02,1.446890e+03
7.839233e+02,1.442385e+03
7.848876e+02,1.443559e+03
7.858518e+02,1.447037e+03
7.868160e+02,1.446922e+03
7.877803e+02,1.439803e+03
7.887445e+02,1.431012e+03
7.897087e+02,1.429919e+03
7.906730e+02,1.435735e+03
7.916372e+02,1.438681e+03
7.926014e+02,1.434489e+03
7.935657e+02,1.426034e+03
7.945299e+02,1.420987e+03
7.954941e+02,1.421355e+03
7.964584e+02,1.421623e+03
7.974226e+02,1.422797e+03
7.983868e+02,1.424678e+03
7.993511e+02,1.425410e+03
8.003153e+02,1.423781e+03
8.012795e+02,1.420615e+03
8.022438e+02,1.415184e+03
8.032080e+02,1.409939e+03
8.041722e+02,1.406687e+03
8.051365e+02,1.405618e+03
8.061007e+02,1.406186e+03
8.070649e+02,1.409001e+03
8.080292e+02,1.412397e+03
8.089934e+02,1.414397e+03
8.099576e+02,1.415047e+03
8.109219e+02,1.414562e+03
8.118861e+02,1.412155e+03
8.128503e+02,1.407938e+03
8.138146e+02,1.405948e+03
8.147788e+02,1.406722e+03
8.157430e+02,1.407921e+03
8.167073e+02,1.408294e+03
8.176715e+02,1.408794e+03
8.186357e+02,1.407385e+03
8.196000e+02,1.400577e+03
8.205642e+02,1.394912e+03
8.215284e+02,1.392025e+03
8.224927e+02,1.391913e+03
8.234569e+02,1.394460e+03
8.244211e+02,1.402389e+03
8.253854e+02,1.410687e+03
8.263496e+02,1.416214e+03
8.273138e+02,1.418878e+03
8.282781e+02,1.420090e+03
8.292423e+02,1.421361e+03
8.302065e+02,1.422465e+03
8.311708e+02,1.422737e+03
8.321350e+02,1.422103e+03
8.330992e+02,1.419923e+03
8.340635e+02,1.415133e+03
8.350277e+02,1.408896e+03
8.359919e+02,1.405500e+03
8.369562e+02,1.405582e+03
8.379204e+02,1.405270e+03
8.388846e+02,1.402789e+03
8.398489e+02,1.399497e+03
8.408131e+02,1.398703e+03
8.417773e+02,1.403228e+03
8.427416e+02,1.405750e+03
8.437058e+02,1.403754e+03
8.446700e+02,1.400413e+03
8.456343e+02,1.399585e+03
8.465985e+02,1.404320e+03
8.475627e+02,1.406127e+03
8.485270e+02,1.398366e+03
8.494912e+02,1.388244e+03
8.504554e+02,1.384506e+03
8.514197e+02,1.389543e+03
8.523839e+02,1.394465e+03
8.533481e+02,1.389048e+03
8.543124e+02,1.378708e+03
8.552766e+02,1.374641e+03
8.562408e+02,1.378155e+03
8.572051e+02,1.382977e+03
8.581693e+02,1.382780e+03
8.591335e+02,1.378215e+03
8.600978e+02,1.374730e+03
8.610620e+02,1.372838e+03
8.620262e+02,1.371645e+03
8.629905e+02,1.369974e+03
8.639547e+02,1.367227e+03
8.649189e+02,1.365984e+03
8.658832e+02,1.369567e+03
8.668474e+02,1.371538e+03
8.678116e+02,1.366897e+03
8.687759e+02,1.357191e+03
8.697401e+02,1.351722e+03
8.707043e+02,1.352233e+03
8.716686e+02,1.354298e+03
8.726328e+02,1.359474e+03
8.735970e+02,1.365667e+03
8.745613e+02,1.368657e+03
8.755255e+02,1.364852e+03
8.764897e+02,1.360647e+03
8.774540e+02,1.360605e+03
8.784182e+02,1.362517e+03
8.793824e+02,1.362490e+03
8.803467e+02,1.358722e+03
8.813109e+02,1.353968e+03
8.822751e+02,1.351618e+03
8.832394e+02,1.351582e+03
8.842036e+02,1.353000e+03
8.851678e+02,1.355479e+03
8.861321e+02,1.357356e+03
8.870963e+02,1.356563e+03
8.880605e+02,1.352909e+03
8.890248e+02,1.347981e+03
8.899890e+02,1.341739e+03
8.909532e+02,1.336486e+03
8.919175e+02,1.334285e+03
8.928817e+02,1.335864e+03
8.938459e+02,1.336987e+03
8.948102e+02,1.336534e+03
8.957744e+02,1.336154e+03
8.967386e+02,1.337856e+03
8.977029e+02,1.341176e+03
8.986671e+02,1.341348e+03
8.996313e+02,1.336255e+03
9.005956e+02,1.331191e+03
9.015598e+02,1.327563e+03
9.025240e+02,1.325294e+03
9.034883e+02,1.324283e+03
9.044525e+02,1.326788e+03
9.054167e+02,1.327705e+03
9.063810e+02,1.322464e+03
9.073452e+02,1.315126e+03
9.083094e+02,1.312218e+03
9.092737e+02,1.317333e+03
9.102379e+02,1.323978e+03
9.112021e+02,1.324699e+03
9.121664e+02,1.321377e+03
9.131306e+02,1.319366e+03
9.140948e+02,1.320753e+03
9.150591e+02,1.323067e+03
9.160233e+02,1.321113e+03
9.169875e+02,1.314898e+03
9.179518e+02,1.310344e+03
9.189160e+02,1.308312e+03
9.198802e+02,1.308222e+03
9.208445e+02,1.310674e+03
9.218087e+02,1.316755e+03
9.227729e+02,1.319962e+03
9.237372e+02,1.319545e+03
9.247014e+02,1.316815e+03
9.256656e+02,1.311865e+03
9.266299e+02,1.304422e+03
9.275941e+02,1.299812e+03
9.285583e+02,1.298194e+03
9.295226e+02,1.298694e+03
9.304868e+02,1.304379e+03
9.314510e+02,1.312683e+03
9.324153e+02,1.314525e+03
9.333795e+02,1.301068e+03
9.343438e+02,1.290343e+03
9.353080e+02,1.289209e+03
9.362722e+02,1.292493e+03
9.372365e+02,1.293158e+03
9.382007e+02,1.287893e+03
9.391649e+02,1.284228e+03
9.401292e+02,1.287365e+03
9.410934e+02,1.292916e+03
9.420576e+02,1.294867e+03
9.430219e+02,1.291336e+03
9.439861e+02,1.288445e+03
9.449503e+02,1.289845e+03
9.459146e+02,1.296164e+03
9.468788e+02,1.309856e+03
9.478430e+02,1.329434e+03
9.488073e+02,1.346779e+03
9.497715e+02,1.355226e+03
9.507357e+02,1.357410e+03
9.517000e+02,1.360562e+03
9.526642e+02,1.364559e+03
9.536284e+02,1.361377e+03
9.545927e+02,1.343137e+03
9.555569e+02,1.315342e+03
9.565211e+02,1.295514e+03
9.574854e+02,1.284110e+03
9.584496e+02,1.278505e+03
9.594138e+02,1.278082e+03
9.603781e+02,1.280461e+03
9.613423e+02,1.280453e+03
9.623065e+02,1.277482e+03
9.632708e+02,1.275252e+03
9.642350e+02,1.274929e+03
9.651992e+02,1.275743e+03
9.661635e+02,1.276357e+03
9.671277e+02,1.277037e+03
9.680919e+02,1.275635e+03
9.690562e+02,1.270486e+03
9.700204e+02,1.264813e+03
9.709846e+02,1.261399e+03
9.719489e+02,1.260980e+03
9.729131e+02,1.261038e+03
9.738773e+02,1.263133e+03
9.748416e+02,1.264783e+03
9.758058e+02,1.263307e+03
9.767700e+02,1.259290e+03
9.777343e+02,1.257845e+03
9.786985e+02,1.263925e+03
9.796627e+02,1.267731e+03
9.806270e+02,1.264993e+03
9.815912e+02,1.258109e+03
9.825554e+02,1.251187e+03
9.835197e+02,1.244556e+03
9.844839e+02,1.240285e+03
9.854481e+02,1.240658e+03
9.864124e+02,1.243340e+03
9.873766e+02,1.245531e+03
9.883408e+02,1.246670e+03
9.893051e+02,1.247329e+03
9.902693e+02,1.246959e+03
9.912335e+02,1.246923e+03
9.921978e+02,1.249206e+03
9.931620e+02,1.253165e+03
9.941262e+02,1.255201e+03
9.950905e+02,1.250218e+03
9.960547e+02,1.243776e+03
9.970189e+02,1.244116e+03
9.979832e+02,1.249553e+03
9.989474e+02,1.253160e+03
9.999116e+02,1.250318e+03
1.000876e+03,1.245213e+03
1.001840e+03,1.244576e+03
1.002804e+03,1.247351e+03
1.003769e+03,1.248505e+03
1.004733e+03,1.245461e+03
1.005697e+03,1.241771e+03
1.006661e+03,1.244425e+03
1.007625e+03,1.251690e+03
1.008590e+03,1.255045e+03
1.009554e+03,1.252593e+03
1.010518e+03,1.247220e+03
1.011482e+03,1.241570e+03
1.012447e+03,1.235851e+03
1.013411e+03,1.232232e+03
1.014375e+03,1.231513e+03
1.015339e+03,1.231474e+03
1.016304e+03,1.229959e+03
1.017268e+03,1.227352e+03
1.018232e+03,1.227021e+03
1.019196e+03,1.229166e+03
1.020161e+03,1.230447e+03
1.021125e+03,1.229240e+03
1.022089e+03,1.227501e+03
1.023053e+03,1.230592e+03
1.024017e+03,1.239923e+03
1.024982e+03,1.244193e+03
1.025946e+03,1.239624e+03
1.026910e+03,1.231191e+03
1.027874e+03,1.226065e+03
1.028839e+03,1.225835e+03
1.029803e+03,1.225672e+03
1.030767e+03,1.225796e+03
1.031731e+03,1.225590e+03
1.032696e+03,1.224232e+03
1.033660e+03,1.221535e+03
1.034624e+03,1.219249e+03
1.035588e+03,1.217803e+03
1.036552e+03,1.216876e+03
1.037517e+03,1.215815e+03
1.038481e+03,1.214606e+03
1.039445e+03,1.214680e+03
1.040409e+03,1.218078e+03
1.041374e+03,1.219419e+03
1.042338e+03,1.217135e+03
1.043302e+03,1.213333e+03
1.044266e+03,1.210331e+03
1.045231e+03,1.207009e+03
1.046195e+03,1.206251e+03
1.047159e+03,1.212886e+03
1.048123e+03,1.218475e+03
1.049088e+03,1.215681e+03
1.050052e+03,1.203039e+03
1.051016e+03,1.196945e+03
1.051980e+03,1.203542e+03
1.052944e+03,1.210042e+03
1.053909e+03,1.210633e+03
1.054873e+03,1.206332e+03
1.055837e+03,1.203278e+03
1.056801e+03,1.202745e+03
1.057766e+03,1.203168e+03
1.058730e+03,1.205882e+03
1.059694e+03,1.208957e+03
1.060658e+03,1.209720e+03
1.061623e+03,1.206897e+03
1.062587e+03,1.204388e+03
1.063551e+03,1.202553e+03
1.064515e+03,1.201359e+03
1.065479e+03,1.200549e+03
1.066444e+03,1.200345e+03
1.067408e+03,1.200771e+03
1.068372e+03,1.202725e+03
1.069336e+03,1.204387e+03
1.070301e+03,1.204550e+03
1.071265e+03,1.203052e+03
1.072229e+03,1.200562e+03
1.073193e+03,1.195318e+03
1.074158e+03,1.191294e+03
1.075122e+03,1.189596e+03
1.076086e+03,1.189694e+03
1.077050e+03,1.191553e+03
1.078015e+03,1.197585e+03
1.078979e+03,1.201622e+03
1.079943e+03,1.199579e+03
1.080907e+03,1.196948e+03
1.081871e+03,1.197617e+03
1.082836e+03,1.201593e+03
1.083800e+03,1.204548e+03
1.084764e+03,1.204222e+03
1.085728e+03,1.204707e+03
1.086693e+03,1.208099e+03
1.087657e+03,1.213469e+03
1.088621e+03,1.218549e+03
1.089585e+03,1.224624e+03
1.090550e+03,1.227636e+03
1.091514e+03,1.225608e+03
1.092478e+03,1.221531e+03
1.093442e+03,1.218312e+03
1.094406e+03,1.216625e+03
1.095371e+03,1.215356e+03
1.096335e+03,1.215250e+03
1.097299e+03,1.214201e+03
1.098263e+03,1.209427e+03
1.099228e+03,1.201140e+03
1.100192e+03,1.196688e+03
1.101156e+03,1.197117e+03
1.102120e+03,1.201664e+03
1.103085e+03,1.213419e+03
1.104049e+03,1.228656e+03
1.105013e+03,1.239986e+03
1.105977e+03,1.246543e+03
1.106942e+03,1.249122e+03
1.107906e+03,1.246236e+03
1.108870e+03,1.240616e+03
1.109834e+03,1.234438e+03
1.110798e+03,1.227752e+03
1.111763e+03,1.221063e+03
1.112727e+03,1.213289e+03
1.113691e+03,1.206972e+03
1.114655e+03,1.203642e+03
1.115620e+03,1.202940e+03
1.116584e+03,1.202266e+03
1.117548e+03,1.199650e+03
1.118512e+03,1.198199e+03
1.119477e+03,1.200299e+03
1.120441e+03,1.203521e+03
1.121405e+03,1.204320e+03
1.122369e+03,1.199695e+03
1.123333e+03,1.197295e+03
1.124298e+03,1.199709e+03
1.125262e+03,1.202507e+03
1.126226e+03,1.202629e+03
1.127190e+03,1.199901e+03
1.128155e+03,1.196893e+03
1.129119e+03,1.191644e+03
1.130083e+03,1.188276e+03
1.131047e+03,1.189195e+03
1.132012e+03,1.192688e+03
1.132976e+03,1.193467e+03
1.133940e+03,1.186548e+03
1.134904e+03,1.187142e+03
1.135869e+03,1.200585e+03
1.136833e+03,1.219588e+03
1.137797e+03,1.236327e+03
1.138761e+03,1.251178e+03
1.139725e+03,1.264341e+03
1.140690e+03,1.277377e+03
1.141654e+03,1.284965e+03
1.142618e+03,1.283883e+03
1.143582e+03,1.274560e+03
1.144547e+03,1.257892e+03
1.145511e+03,1.230843e+03
1.146475e+03,1.207967e+03
1.147439e+03,1.193802e+03
1.148404e+03,1.185557e+03
1.149368e+03,1.177870e+03
1.150332e+03,1.170393e+03
1.151296e+03,1.165935e+03
1.152260e+03,1.164628e+03
1.153225e+03,1.163916e+03
1.154189e+03,1.163040e+03
1.155153e+03,1.162185e+03
1.156117e+03,1.157683e+03
1.157082e+03,1.149764e+03
1.158046e+03,1.144402e+03
1.159010e+03,1.144390e+03
1.159974e+03,1.147076e+03
1.160939e+03,1.147130e+03
1.161903e+03,1.144629e+03
1.162867e+03,1.141137e+03
1.163831e+03,1.136798e+03
1.164796e+03,1.133592e+03
1.165760e+03,1.135879e+03
1.166724e+03,1.141032e+03
1.167688e+03,1.141007e+03
1.168652e+03,1.136086e+03
1.169617e+03,1.130401e+03
1.170581e+03,1.126030e+03
1.171545e+03,1.123206e+03
1.172509e+03,1.122743e+03
1.173474e+03,1.124047e+03
1.174438e+03,1.125463e+03
1.175402e+03,1.126307e+03
1.176366e+03,1.127184e+03
1.177331e+03,1.127915e+03
1.178295e+03,1.129651e+03
1.179259e+03,1.133976e+03
1.180223e+03,1.140521e+03
1.181188e+03,1.147467e+03
1.182152e+03,1.157385e+03
1.183116e+03,1.164017e+03
1.184080e+03,1.160374e+03
1.185044e+03,1.151499e+03
1.186009e+03,1.146105e+03
1.186973e+03,1.149162e+03
1.187937e+03,1.151701e+03
1.188901e+03,1.148027e+03
1.189866e+03,1.143598e+03
1.190830e+03,1.143274e+03
1.191794e+03,1.147398e+03
1.192758e+03,1.150324e+03
1.193723e+03,1.150460e+03
1.194687e+03,1.150642e+03
1.195651e+03,1.153459e+03
1.196615e+03,1.156722e+03
1.197579e+03,1.154878e+03
1.198544e+03,1.140736e+03
1.199508e+03,1.130940e+03
1.200472e+03,1.128702e+03
1.201436e+03,1.130037e+03
1.202401e+03,1.132167e+03
1.203365e+03,1.135613e+03
1.204329e+03,1.138094e+03
1.205293e+03,1.139099e+03
1.206258e+03,1.140020e+03
1.207222e+03,1.141386e+03
1.208186e+03,1.142813e+03
1.209150e+03,1.143297e+03
1.210115e+03,1.142374e+03
1.211079e+03,1.141963e+03
1.212043e+03,1.142737e+03
1.213007e+03,1.143157e+03
1.213971e+03,1.141649e+03
1.214936e+03,1.138773e+03
1.215900e+03,1.136321e+03
1.216864e+03,1.134283e+03
1.217828e+03,1.130976e+03
1.218793e+03,1.124549e+03
1.219757e+03,1.117740e+03
1.220721e+03,1.117137e+03
1.221685e+03,1.119863e+03
1.222650e+03,1.117001e+03
1.223614e+03,1.105614e+03
1.224578e+03,1.093263e+03
1.225542e+03,1.085165e+03
1.226506e+03,1.081230e+03
1.227471e+03,1.082926e+03
1.228435e+03,1.088585e+03
1.229399e+03,1.092762e+03
1.230363e+03,1.094354e+03
1.231328e+03,1.092673e+03
1.232292e+03,1.084831e+03
1.233256e+03,1.075488e+03
1.234220e+03,1.070193e+03
1.235185e+03,1.071374e+03
1.236149e+03,1.072993e+03
1.237113e+03,1.074149e+03
1.238077e+03,1.075349e+03
1.239042e+03,1.076135e+03
1.240006e+03,1.076126e+03
1.240970e+03,1.076135e+03
1.241934e+03,1.077030e+03
1.242898e+03,1.076137e+03
1.243863e+03,1.072143e+03
1.244827e+03,1.067577e+03
1.245791e+03,1.066005e+03
1.246755e+03,1.068164e+03
1.247720e+03,1.068660e+03
1.248684e+03,1.067029e+03
1.249648e+03,1.066400e+03
1.250612e+03,1.069445e+03
1.251577e+03,1.074094e+03
1.252541e+03,1.072815e+03
1.253505e+03,1.066398e+03
1.254469e+03,1.061997e+03
1.255433e+03,1.061947e+03
1.256398e+03,1.064086e+03
1.257362e+03,1.066820e+03
1.258326e+03,1.069038e+03
1.259290e+03,1.068496e+03
1.260255e+03,1.065374e+03
1.261219e+03,1.062158e+03
1.262183e+03,1.060678e+03
1.263147e+03,1.060581e+03
1.264112e+03,1.063115e+03
1.265076e+03,1.066042e+03
1.266040e+03,1.065350e+03
1.267004e+03,1.058672e+03
1.267969e+03,1.053783e+03
1.268933e+03,1.055385e+03
1.269897e+03,1.058343e+03
1.270861e+03,1.057848e+03
1.271825e+03,1.053751e+03
1.272790e+03,1.053277e+03
1.273754e+03,1.060620e+03
1.274718e+03,1.065042e+03
1.275682e+03,1.064466e+03
1.276647e+03,1.061330e+03
1.277611e+03,1.058076e+03
1.278575e+03,1.054487e+03
1.279539e+03,1.051213e+03
1.280504e+03,1.048726e+03
1.281468e+03,1.047452e+03
1.282432e+03,1.047333e+03
1.283396e+03,1.048323e+03
1.284360e+03,1.050165e+03
1.285325e+03,1.052765e+03
1.286289e+03,1.057573e+03
1.287253e+03,1.065057e+03
1.288217e+03,1.070863e+03
1.289182e+03,1.069388e+03
1.290146e+03,1.065233e+03
1.291110e+03,1.064093e+03
1.292074e+03,1.065721e+03
1.293039e+03,1.067261e+03
1.294003e+03,1.066512e+03
1.294967e+03,1.066048e+03
1.295931e+03,1.067182e+03
1.296896e+03,1.069652e+03
1.297860e+03,1.072806e+03
1.298824e+03,1.076066e+03
1.299788e+03,1.081560e+03
1.300752e+03,1.091742e+03
1.301717e+03,1.100343e+03
1.302681e+03,1.104447e+03
1.303645e+03,1.105559e+03
1.304609e+03,1.108655e+03
1.305574e+03,1.114121e+03
1.306538e+03,1.115644e+03
1.307502e+03,1.112756e+03
1.308466e+03,1.106938e+03
1.309431e+03,1.097817e+03
1.310395e+03,1.086780e+03
1.311359e+03,1.078057e+03
1.312323e+03,1.071233e+03
1.313287e+03,1.066425e+03
1.314252e+03,1.064590e+03
1.315216e+03,1.064432e+03
1.316180e+03,1.064389e+03
1.317144e+03,1.065015e+03
1.318109e+03,1.067100e+03
1.319073e+03,1.070224e+03
1.320037e+03,1.072375e+03
1.321001e+03,1.072306e+03
1.321966e+03,1.071797e+03
1.322930e+03,1.071631e+03
1.323894e+03,1.072188e+03
1.324858e+03,1.073462e+03
1.325823e+03,1.075734e+03
1.326787e+03,1.077547e+03
1.327751e+03,1.077238e+03
1.328715e+03,1.079263e+03
1.329679e+03,1.086341e+03
1.330644e+03,1.098481e+03
1.331608e+03,1.115905e+03
1.332572e+03,1.138407e+03
1.333536e+03,1.163639e+03
1.334501e+03,1.190765e+03
1.335465e+03,1.221183e+03
1.336429e+03,1.264158e+03
1.337393e+03,1.308109e+03
1.338358e+03,1.339109e+03
1.339322e+03,1.355055e+03
1.340286e+03,1.353876e+03
1.341250e+03,1.328092e+03
1.342214e+03,1.292594e+03
1.343179e+03,1.248459e+03
1.344143e+03,1.202382e+03
1.345107e+03,1.159399e+03
1.346071e+03,1.118076e+03
1.347036e+03,1.087581e+03
1.348000e+03,1.070795e+03
1.348964e+03,1.059059e+03
1.349928e+03,1.050044e+03
1.350893e+03,1.043833e+03
1.351857e+03,1.040272e+03
1.352821e+03,1.039066e+03
1.353785e+03,1.039082e+03
1.354750e+03,1.040061e+03
1.355714e+03,1.039803e+03
1.356678e+03,1.035682e+03
1.357642e+03,1.030633e+03
1.358606e+03,1.027966e+03
1.359571e+03,1.027307e+03
1.360535e+03,1.028460e+03
1.361499e+03,1.032560e+03
1.362463e+03,1.035376e+03
1.363428e+03,1.033560e+03
1.364392e+03,1.031344e+03
1.365356e+03,1.031039e+03
1.366320e+03,1.032240e+03
1.367285e+03,1.034144e+03
1.368249e+03,1.038263e+03
1.369213e+03,1.040566e+03
1.370177e+03,1.040098e+03
1.371141e+03,1.038104e+03
1.372106e+03,1.035673e+03
1.373070e+03,1.032960e+03
1.374034e+03,1.031720e+03
1.374998e+03,1.031904e+03
1.375963e+03,1.030596e+03
1.376927e+03,1.025220e+03
1.377891e+03,1.019981e+03
1.378855e+03,1.021114e+03
1.379820e+03,1.023797e+03
1.380784e+03,1.020854e+03
1.381748e+03,1.011664e+03
1.382712e+03,1.005490e+03
1.383677e+03,1.006662e+03
1.384641e+03,1.008524e+03
1.385605e+03,1.009919e+03
1.386569e+03,1.009869e+03
1.387533e+03,1.006354e+03
1.388498e+03,9.982262e+02
1.389462e+03,9.941444e+02
1.390426e+03,9.945895e+02
1.391390e+03,9.952998e+02
1.392355e+03,9.938264e+02
1.393319e+03,9.914026e+02
1.394283e+03,9.897370e+02
1.395247e+03,9.886575e+02
1.396212e+03,9.879838e+02
1.397176e+03,9.876758e+02
1.398140e+03,9.882941e+02
1.399104e+03,9.913150e+02
1.400068e+03,9.938175e+02
1.401033e+03,9.935357e+02
1.401997e+03,9.913895e+02
1.402961e+03,9.901649e+02
1.403925e+03,9.907488e+02
1.404890e+03,9.901276e+02
1.405854e+03,9.878961e+02
1.406818e+03,9.857153e+02
1.407782e+03,9.847012e+02
1.408747e+03,9.850245e+02
1.409711e+03,9.869651e+02
1.410675e+03,9.895129e+02
1.411639e+03,9.905735e+02
1.412604e+03,9.896356e+02
1.413568e+03,9.876917e+02
1.414532e+03,9.842877e+02
1.415496e+03,9.818992e+02
1.416460e+03,9.838663e+02
1.417425e+03,9.883334e+02
1.418389e+03,9.891907e+02
1.419353e+03,9.803792e+02
1.420317e+03,9.757500e+02
1.421282e+03,9.775046e+02
1.422246e+03,9.825873e+02
1.423210e+03,9.896546e+02
1.424174e+03,9.979606e+02
1.425139e+03,1.000944e+03
1.426103e+03,9.987644e+02
1.427067e+03,9.947629e+02
1.428031e+03,9.898192e+02
1.428995e+03,9.854263e+02
1.429960e+03,9.830995e+02
1.430924e+03,9.816314e+02
1.431888e+03,9.794159e+02
1.432852e+03,9.768781e+02
1.433817e+03,9.761551e+02
1.434781e+03,9.791721e+02
1.435745e+03,9.825357e+02
1.436709e+03,9.853551e+02
1.437674e+03,9.882099e+02
1.438638e+03,9.922632e+02
1.439602e+03,9.975826e+02
1.440566e+03,1.000955e+03
1.441531e+03,1.002695e+03
1.442495e+03,1.006610e+03
1.443459e+03,1.013554e+03
1.444423e+03,1.024908e+03
1.445387e+03,1.044505e+03
1.446352e+03,1.067067e+03
1.447316e+03,1.091131e+03
1.448280e+03,1.114651e+03
1.449244e+03,1.127549e+03
1.450209e+03,1.125656e+03
1.451173e+03,1.114327e+03
1.452137e+03,1.089035e+03
1.453101e+03,1.060809e+03
1.454066e+03,1.039122e+03
1.455030e+03,1.023919e+03
1.455994e+03,1.015060e+03
1.456958e+03,1.011942e+03
1.457922e+03,1.010961e+03
1.458887e+03,1.010836e+03
1.459851e+03,1.010835e+03
1.460815e+03,1.011171e+03
1.461779e+03,1.010396e+03
1.462744e+03,1.007806e+03
1.463708e+03,1.003573e+03
1.464672e+03,9.976574e+02
1.465636e+03,9.881316e+02
1.466601e+03,9.821839e+02
1.467565e+03,9.814265e+02
1.468529e+03,9.824988e+02
1.469493e+03,9.817892e+02
1.470458e+03,9.798387e+02
1.471422e+03,9.805035e+02
1.472386e+03,9.831140e+02
1.473350e+03,9.845842e+02
1.474314e+03,9.836213e+02
1.475279e+03,9.810447e+02
1.476243e+03,9.753201e+02
1.477207e+03,9.696730e+02
1.478171e+03,9.677089e+02
1.479136e+03,9.684803e+02
1.480100e+03,9.669875e+02
1.481064e+03,9.629695e+02
1.482028e+03,9.575927e+02
1.482993e+03,9.506735e+02
1.483957e+03,9.451707e+02
1.484921e+03,9.444987e+02
1.485885e+03,9.463002e+02
1.486849e+03,9.462854e+02
1.487814e+03,9.447895e+02
1.488778e+03,9.431760e+02
1.489742e+03,9.420828e+02
1.490706e+03,9.404699e+02
1.491671e+03,9.379052e+02
1.492635e+03,9.359646e+02
1.493599e+03,9.351848e+02
1.494563e+03,9.348168e+02
1.495528e+03,9.336658e+02
1.496492e+03,9.315683e+02
1.497456e+03,9.273419e+02
1.498420e+03,9.212970e+02
1.499385e+03,9.177385e+02
1.500349e+03,9.224990e+02
1.501313e+03,9.287393e+02
1.502277e+03,9.299241e+02
1.503241e+03,9.285404e+02
1.504206e+03,9.282521e+02
1.505170e+03,9.297055e+02
1.506134e+03,9.316091e+02
1.507098e+03,9.348304e+02
1.508063e+03,9.361964e+02
1.509027e+03,9.340626e+02
1.509991e+03,9.304858e+02
1.510955e+03,9.286885e+02
1.511920e+03,9.283007e+02
1.512884e+03,9.287037e+02
1.513848e+03,9.301910e+02
1.514812e+03,9.328514e+02
1.515776e+03,9.323768e+02
1.516741e+03,9.372387e+02
1.517705e+03,9.503856e+02
1.518669e+03,9.701054e+02
1.519633e+03,9.940096e+02
1.520598e+03,1.022575e+03
1.521562e+03,1.068111e+03
1.522526e+03,1.130211e+03
1.523490e+03,1.213422e+03
1.524455e+03,1.323960e+03
1.525419e+03,1.426115e+03
1.526383e+03,1.505262e+03
1.527347e+03,1.544864e+03
1.528312e+03,1.519180e+03
1.529276e+03,1.439440e+03
1.530240e+03,1.351389e+03
1.531204e+03,1.247398e+03
1.532168e+03,1.163650e+03
1.533133e+03,1.104268e+03
1.534097e+03,1.059965e+03
1.535061e+03,1.026382e+03
1.536025e+03,1.000984e+03
1.536990e+03,9.802044e+02
1.537954e+03,9.642740e+02
1.538918e+03,9.549014e+02
1.539882e+03,9.533865e+02
1.540847e+03,9.496837e+02
1.541811e+03,9.376196e+02
1.542775e+03,9.270846e+02
1.543739e+03,9.215596e+02
1.544703e+03,9.188455e+02
1.545668e+03,9.149822e+02
1.546632e+03,9.105975e+02
1.547596e+03,9.083819e+02
1.548560e+03,9.081779e+02
1.549525e+03,9.082169e+02
1.550489e+03,9.076030e+02
1.551453e+03,9.063090e+02
1.552417e+03,9.038951e+02
1.553382e+03,9.010633e+02
1.554346e+03,8.984309e+02
1.555310e+03,8.962535e+02
1.556274e+03,8.959156e+02
1.557239e+03,8.972432e+02
1.558203e+03,8.956124e+02
1.559167e+03,8.897091e+02
1.560131e+03,8.844095e+02
1.561095e+03,8.853668e+02
1.562060e+03,8.877067e+02
1.563024e+03,8.873154e+02
1.563988e+03,8.851592e+02
1.564952e+03,8.839034e+02
1.565917e+03,8.842687e+02
1.566881e+03,8.826791e+02
1.567845e+03,8.783945e+02
1.568809e+03,8.761936e+02
1.569774e+03,8.797766e+02
1.570738e+03,8.848362e+02
1.571702e+03,8.852834e+02
1.572666e+03,8.836616e+02
1.573630e+03,8.838016e+02
1.574595e+03,8.863272e+02
1.575559e+03,8.861516e+02
1.576523e+03,8.807138e+02
1.577487e+03,8.787490e+02
1.578452e+03,8.821718e+02
1.579416e+03,8.861509e+02
1.580380e+03,8.842584e+02
1.581344e+03,8.804207e+02
1.582309e+03,8.845091e+02
1.583273e+03,8.927144e+02
1.584237e+03,8.948333e+02
1.585201e+03,8.835788e+02
1.586166e+03,8.782894e+02
1.587130e+03,8.840183e+02
1.588094e+03,8.891373e+02
1.589058e+03,8.882734e+02
1.590022e+03,8.852543e+02
1.590987e+03,8.885693e+02
1.591951e+03,8.954817e+02
1.592915e+03,8.982648e+02
1.593879e+03,8.961771e+02
1.594844e+03,8.941630e+02
1.595808e+03,8.951621e+02
1.596772e+03,8.955834e+02
1.597736e+03,8.954492e+02
1.598701e+03,8.940511e+02
1.599665e+03,8.895431e+02
1.600629e+03,8.833455e+02
1.601593e+03,8.824536e+02
1.602557e+03,8.850085e+02
1.603522e+03,8.848586e+02
1.604486e+03,8.795505e+02
1.605450e+03,8.753694e+02
1.606414e+03,8.766683e+02
1.607379e+03,8.782718e+02
1.608343e+03,8.782073e+02
1.609307e+03,8.769531e+02
1.610271e+03,8.748600e+02
1.611236e+03,8.723082e+02
1.612200e+03,8.721032e+02
1.613164e+03,8.741653e+02
1.614128e+03,8.758522e+02
1.615093e+03,8.756794e+02
1.616057e+03,8.746169e+02
1.617021e+03,8.714335e+02
1.617985e+03,8.686439e+02
1.618949e+03,8.684959e+02
1.619914e+03,8.700323e+02
1.620878e+03,8.686868e+02
1.621842e+03,8.655610e+02
1.622806e+03,8.648638e+02
1.623771e+03,8.676285e+02
1.624735e+03,8.702264e+02
1.625699e+03,8.712272e+02
1.626663e+03,8.700526e+02
1.627628e+03,8.645230e+02
1.628592e+03,8.586506e+02
1.629556e+03,8.590031e+02
1.630520e+03,8.646865e+02
1.631484e+03,8.679538e+02
1.632449e+03,8.689232e+02
1.633413e+03,8.689782e+02
1.634377e+03,8.688352e+02
1.635341e+03,8.676894e+02
1.636306e+03,8.646436e+02
1.637270e+03,8.611321e+02
1.638234e+03,8.570092e+02
1.639198e+03,8.536749e+02
1.640163e+03,8.547811e+02
1.641127e+03,8.592604e+02
1.642091e+03,8.630426e+02
1.643055e+03,8.654310e+02
1.644020e+03,8.675058e+02
1.644984e+03,8.709375e+02
1.645948e+03,8.716600e+02
1.646912e+03,8.682073e+02
1.647876e+03,8.638408e+02
1.648841e+03,8.612395e+02
1.649805e+03,8.600443e+02
1.650769e+03,8.585756e+02
1.651733e+03,8.573026e+02
1.652698e+03,8.581133e+02
1.653662e+03,8.616835e+02
1.654626e+03,8.635229e+02
1.655590e+03,8.613477e+02
1.656555e+03,8.593987e+02
1.657519e+03,8.591620e+02
1.658483e+03,8.600297e+02
1.659447e+03,8.615375e+02
1.660411e+03,8.622664e+02
1.661376e+03,8.584728e+02
1.662340e+03,8.523465e+02
1.663304e+03,8.502496e+02
1.664268e+03,8.596014e+02
1.665233e+03,8.614784e+02
1.666197e+03,8.528210e+02
1.667161e+03,8.456727e+02
1.668125e+03,8.476826e+02
1.669090e+03,8.529874e+02
1.670054e+03,8.536376e+02
1.671018e+03,8.513618e+02
1.671982e+03,8.473769e+02
1.672947e+03,8.423627e+02
1.673911e+03,8.414887e+02
1.674875e+03,8.457216e+02
1.675839e+03,8.487250e+02
1.676803e+03,8.500810e+02
1.677768e+03,8.499803e+02
1.678732e+03,8.477538e+02
1.679696e+03,8.441389e+02
1.680660e+03,8.380592e+02
1.681625e+03,8.316807e+02
1.682589e+03,8.290803e+02
1.683553e+03,8.307327e+02
1.684517e+03,8.312964e+02
1.685482e+03,8.307256e+02
1.686446e+03,8.316195e+02
1.687410e+03,8.351207e+02
1.688374e+03,8.379316e+02
1.689339e+03,8.364967e+02
1.690303e+03,8.346524e+02
1.691267e+03,8.355575e+02
1.692231e+03,8.370140e+02
1.693195e+03,8.335154e+02
1.694160e+03,8.261276e+02
1.695124e+03,8.265109e+02
1.696088e+03,8.333032e+02
1.697052e+03,8.358428e+02
1.698017e+03,8.237742e+02
1.698981e+03,8.155074e+02
1.699945e+03,8.173110e+02
1.700909e+03,8.207236e+02
1.701874e+03,8.230054e+02
1.702838e+03,8.236984e+02
1.703802e+03,8.181059e+02
1.704766e+03,8.100358e+02
1.705730e+03,8.092504e+02
1.706695e+03,8.163053e+02
1.707659e+03,8.185781e+02
1.708623e+03,8.119655e+02
1.709587e+03,8.071686e+02
1.710552e+03,8.052266e+02
1.711516e+03,8.040818e+02
1.712480e+03,8.022467e+02
1.713444e+03,8.003160e+02
1.714409e+03,7.996859e+02
1.715373e+03,7.995197e+02
1.716337e+03,7.982333e+02
1.717301e+03,7.960157e+02
1.718266e+03,7.932773e+02
1.719230e+03,7.898712e+02
1.720194e+03,7.876196e+02
1.721158e+03,7.869709e+02
1.722122e+03,7.869506e+02
1.723087e+03,7.866115e+02
1.724051e+03,7.872483e+02
1.725015e+03,7.913674e+02
1.725979e+03,7.951293e+02
1.726944e+03,7.908378e+02
1.727908e+03,7.811921e+02
1.728872e+03,7.772970e+02
1.729836e+03,7.783996e+02
1.730801e+03,7.815297e+02
1.731765e+03,7.881899e+02
1.732729e+03,7.911186e+02
1.733693e+03,7.889343e+02
1.734657e+03,7.852411e+02
1.735622e+03,7.807581e+02
1.736586e+03,7.775237e+02
1.737550e+03,7.806774e+02
1.738514e+03,7.853577e+02
1.739479e+03,7.850966e+02
1.740443e+03,7.804717e+02
1.741407e+03,7.783903e+02
1.742371e+03,7.792349e+02
1.743336e+03,7.795267e+02
1.744300e+03,7.789257e+02
1.745264e+03,7.777943e+02
1.746228e+03,7.752136e+02
1.747193e+03,7.745176e+02
1.748157e+03,7.808718e+02
1.749121e+03,7.867548e+02
1.750085e+03,7.851468e+02
1.751049e+03,7.785167e+02
1.752014e+03,7.781478e+02
1.752978e+03,7.816458e+02
1.753942e+03,7.824291e+02
1.754906e+03,7.791741e+02
1.755871e+03,7.762867e+02
1.756835e+03,7.739310e+02
1.757799e+03,7.723771e+02
1.758763e+03,7.725851e+02
1.759728e+03,7.734683e+02
1.760692e+03,7.753746e+02
1.761656e+03,7.757910e+02
1.762620e+03,7.688806e+02
1.763584e+03,7.603676e+02
1.764549e+03,7.593328e+02
1.765513e+03,7.652936e+02
1.766477e+03,7.672280e+02
1.767441e+03,7.658541e+02
1.768406e+03,7.640075e+02
1.769370e+03,7.623123e+02
1.770334e+03,7.620234e+02
1.771298e+03,7.641927e+02
1.772263e+03,7.665178e+02
1.773227e+03,7.687474e+02
1.774191e+03,7.707291e+02
1.775155e+03,7.725129e+02
1.776120e+03,7.734407e+02
1.777084e+03,7.726111e+02
1.778048e+03,7.702946e+02
1.779012e+03,7.669296e+02
1.779976e+03,7.622683e+02
1.780941e+03,7.593354e+02
1.781905e+03,7.577575e+02
1.782869e+03,7.564291e+02
1.783833e+03,7.550819e+02
1.784798e+03,7.535534e+02
1.785762e+03,7.514326e+02
1.786726e+03,7.491526e+02
1.787690e+03,7.464803e+02
1.788655e+03,7.447938e+02
1.789619e+03,7.490195e+02
1.790583e+03,7.548155e+02
1.791547e+03,7.506035e+02
1.792511e+03,7.386526e+02
1.793476e+03,7.338696e+02
1.794440e+03,7.399805e+02
1.795404e+03,7.458463e+02
1.796368e+03,7.508936e+02
1.797333e+03,7.515861e+02
1.798297e+03,7.436140e+02
1.799261e+03,7.350584e+02
1.800225e+03,7.299118e+02
1.801190e+03,7.278311e+02
1.802154e+03,7.299121e+02
1.803118e+03,7.335478e+02
1.804082e+03,7.313715e+02
1.805047e+03,7.261095e+02
1.806011e+03,7.235787e+02
1.806975e+03,7.241215e+02
1.807939e+03,7.237695e+02
1.808903e+03,7.207565e+02
1.809868e+03,7.210935e+02
1.810832e+03,7.258467e+02
1.811796e+03,7.293588e+02
1.812760e+03,7.259094e+02
1.813725e+03,7.213469e+02
1.814689e+03,7.179274e+02
1.815653e+03,7.168049e+02
1.816617e+03,7.195107e+02
1.817582e+03,7.246216e+02
1.818546e+03,7.292490e+02
1.819510e+03,7.318557e+02
1.820474e+03,7.276498e+02
1.821438e+03,7.161284e+02
1.822403e+03,7.094176e+02
1.823367e+03,7.093553e+02
1.824331e+03,7.091288e+02
1.825295e+03,7.074948e+02
1.826260e+03,7.054522e+02
1.827224e+03,7.028353e+02
1.828188e+03,7.025037e+02
1.829152e+03,7.077627e+02
1.830117e+03,7.132422e+02
1.831081e+03,7.145435e+02
1.832045e+03,7.126152e+02
1.833009e+03,7.104576e+02
1.833974e+03,7.085710e+02
1.834938e+03,7.069044e+02
1.835902e+03,7.051723e+02
1.836866e+03,7.018768e+02
1.837830e+03,6.967344e+02
1.838795e+03,6.932191e+02
1.839759e+03,6.923506e+02
1.840723e+03,6.936628e+02
1.841687e+03,6.989670e+02
1.842652e+03,7.027322e+02
1.843616e+03,7.024114e+02
1.844580e+03,7.005118e+02
1.845544e+03,7.002960e+02
1.846509e+03,7.004644e+02
1.847473e+03,6.981539e+02
1.848437e+03,6.944283e+02
1.849401e+03,6.912734e+02
1.850365e+03,6.889064e+02
1.851330e+03,6.853635e+02
1.852294e+03,6.813197e+02
1.853258e+03,6.820059e+02
1.854222e+03,6.894359e+02
1.855187e+03,6.932484e+02
1.856151e+03,6.835734e+02
1.857115e+03,6.780358e+02
1.858079e+03,6.809305e+02
1.859044e+03,6.853318e+02
1.860008e+03,6.832598e+02
1.860972e+03,6.802689e+02
1.861936e+03,6.830746e+02
1.862901e+03,6.876023e+02
1.863865e+03,6.866237e+02
1.864829e+03,6.809692e+02
1.865793e+03,6.837806e+02
1.866757e+03,6.913489e+02
1.867722e+03,6.905742e+02
1.868686e+03,6.753008e+02
1.869650e+03,6.686982e+02
1.870614e+03,6.736685e+02
1.871579e+03,6.773101e+02
1.872543e+03,6.766339e+02
1.873507e+03,6.749850e+02
1.874471e+03,6.721833e+02
1.875436e+03,6.717275e+02
1.876400e+03,6.770656e+02
1.877364e+03,6.830040e+02
1.878328e+03,6.823313e+02
1.879292e+03,6.788071e+02
1.880257e+03,6.812108e+02
1.881221e+03,6.855641e+02
1.882185e+03,6.826387e+02
1.883149e+03,6.721155e+02
1.884114e+03,6.680235e+02
1.885078e+03,6.692175e+02
1.886042e+03,6.685779e+02
1.887006e+03,6.635240e+02
1.887971e+03,6.613215e+02
1.888935e+03,6.666985e+02
1.889899e+03,6.700217e+02
1.890863e+03,6.685428e+02
1.891828e+03,6.653575e+02
1.892792e+03,6.634446e+02
1.893756e+03,6.619174e+02
1.894720e+03,6.604054e+02
1.895684e+03,6.597647e+02
1.896649e+03,6.609347e+02
1.897613e+03,6.627328e+02
1.898577e+03,6.618968e+02
1.899541e+03,6.593890e+02
1.900506e+03,6.571165e+02
1.901470e+03,6.553339e+02
1.902434e+03,6.519984e+02
1.903398e+03,6.473625e+02
1.904363e+03,6.467703e+02
1.905327e+03,6.520912e+02
1.906291e+03,6.559327e+02
1.907255e+03,6.530457e+02
1.908219e+03,6.494935e+02
1.909184e+03,6.459157e+02
1.910148e+03,6.438096e+02
1.911112e+03,6.466731e+02
1.912076e+03,6.501504e+02
1.913041e+03,6.507235e+02
1.914005e+03,6.494433e+02
1.914969e+03,6.464700e+02
1.915933e+03,6.430076e+02
1.916898e+03,6.449100e+02
1.917862e+03,6.492214e+02
1.918826e+03,6.484634e+02
1.919790e+03,6.414395e+02
1.920755e+03,6.415878e+02
1.921719e+03,6.481278e+02
1.922683e+03,6.513616e+02
1.923647e+03,6.494747e+02
1.924611e+03,6.469649e+02
1.925576e+03,6.443201e+02
1.926540e+03,6.445793e+02
1.927504e+03,6.485375e+02
1.928468e+03,6.511525e+02
1.929433e+03,6.462363e+02
1.930397e+03,6.401577e+02
1.931361e+03,6.381660e+02
1.932325e+03,6.365784e+02
1.933290e+03,6.318751e+02
1.934254e+03,6.268577e+02
1.935218e+03,6.282067e+02
1.936182e+03,6.324325e+02
1.937146e+03,6.348533e+02
1.938111e+03,6.354197e+02
1.939075e+03,6.356966e+02
1.940039e+03,6.358644e+02
1.941003e+03,6.345109e+02
1.941968e+03,6.312077e+02
1.942932e+03,6.297211e+02
1.943896e+03,6.320927e+02
1.944860e+03,6.339477e+02
1.945825e+03,6.351321e+02
1.946789e+03,6.364769e+02
1.947753e+03,6.408997e+02
1.948717e+03,6.412711e+02
1.949682e+03,6.315957e+02
1.950646e+03,6.229156e+02
1.951610e+03,6.221403e+02
1.952574e+03,6.254648e+02
1.953538e+03,6.297830e+02
1.954503e+03,6.329342e+02
1.955467e+03,6.321870e+02
1.956431e+03,6.293458e+02
1.957395e+03,6.275273e+02
1.958360e+03,6.272935e+02
1.959324e+03,6.328305e+02
1.960288e+03,6.425569e+02
1.961252e+03,6.439886e+02
1.962217e+03,6.356376e+02
1.963181e+03,6.275717e+02
1.964145e+03,6.207060e+02
1.965109e+03,6.178624e+02
1.966073e+03,6.239086e+02
1.967038e+03,6.282363e+02
1.968002e+03,6.292966e+02
1.968966e+03,6.288087e+02
1.969930e+03,6.270879e+02
1.970895e+03,6.257232e+02
1.971859e+03,6.276368e+02
1.972823e+03,6.292545e+02
1.973787e+03,6.285114e+02
1.974752e+03,6.269040e+02
1.975716e+03,6.277265e+02
1.976680e+03,6.281461e+02
1.977644e+03,6.242258e+02
1.978609e+03,6.190188e+02
1.979573e+03,6.161909e+02
1.980537e+03,6.159150e+02
1.981501e+03,6.216525e+02
1.982465e+03,6.307043e+02
1.983430e+03,6.349119e+02
1.984394e+03,6.334387e+02
1.985358e+03,6.281946e+02
1.986322e+03,6.199970e+02
1.987287e+03,6.146448e+02
1.988251e+03,6.142048e+02
1.989215e+03,6.143518e+02
1.990179e+03,6.148282e+02
1.991144e+03,6.146747e+02
1.992108e+03,6.139343e+02
1.993072e+03,6.121449e+02
1.994036e+03,6.066420e+02
1.995000e+03,6.030748e+02
1.995965e+03,6.031303e+02
1.996929e+03,6.047084e+02
1.997893e+03,6.060742e+02
1.998857e+03,6.069260e+02
1.999822e+03,6.069612e+02
2.000786e+03,6.063737e+02
2.001750e+03,6.056677e+02
2.002714e+03,6.052991e+02
2.003679e+03,6.058624e+02
2.004643e+03,6.060986e+02
2.005607e+03,6.039553e+02
2.006571e+03,6.002912e+02
2.007536e+03,5.964529e+02
2.008500e+03,5.936866e+02
2.009464e+03,5.973365e+02
2.010428e+03,6.071733e+02
2.011392e+03,6.126119e+02
2.012357e+03,6.130930e+02
2.013321e+03,6.070333e+02
2.014285e+03,5.950717e+02
2.015249e+03,5.883060e+02
2.016214e+03,5.994282e+02
2.017178e+03,6.015823e+02
2.018142e+03,5.929161e+02
2.019106e+03,5.857678e+02
2.020071e+03,5.862990e+02
2.021035e+03,5.900790e+02
2.021999e+03,5.989494e+02
2.022963e+03,6.022094e+02
2.023927e+03,5.945746e+02
2.024892e+03,5.846524e+02
2.025856e+03,5.798692e+02
2.026820e+03,5.795418e+02
2.027784e+03,5.844333e+02
2.028749e+03,5.898488e+02
2.029713e+03,5.881135e+02
2.030677e+03,5.842828e+02
2.031641e+03,5.863030e+02
2.032606e+03,5.901437e+02
2.033570e+03,5.881593e+02
2.034534e+03,5.819368e+02
2.035498e+03,5.787903e+02
2.036463e+03,5.776413e+02
2.037427e+03,5.754520e+02
2.038391e+03,5.723928e+02
2.039355e+03,5.718936e+02
2.040319e+03,5.734334e+02
2.041284e+03,5.744393e+02
2.042248e+03,5.741584e+02
2.043212e+03,5.737921e+02
2.044176e+03,5.736612e+02
2.045141e+03,5.729537e+02
2.046105e+03,5.714612e+02
2.047069e+03,5.707911e+02
2.048033e+03,5.728446e+02
2.048998e+03,5.724076e+02
2.049962e+03,5.690369e+02
2.050926e+03,5.665867e+02
2.051890e+03,5.698849e+02
2.052854e+03,5.705536e+02
2.053819e+03,5.644167e+02
2.054783e+03,5.596486e+02
2.055747e+03,5.617679e+02
2.056711e+03,5.652789e+02
2.057676e+03,5.644813e+02
2.058640e+03,5.636370e+02
2.059604e+03,5.646331e+02
2.060568e+03,5.662712e+02
2.061533e+03,5.683676e+02
2.062497e+03,5.693002e+02
2.063461e+03,5.659151e+02
2.064425e+03,5.616478e+02
2.065390e+03,5.618781e+02
2.066354e+03,5.640906e+02
2.067318e+03,5.633478e+02
2.068282e+03,5.614843e+02
2.069247e+03,5.628885e+02
2.070211e+03,5.663396e+02
2.071175e+03,5.636345e+02
2.072139e+03,5.574529e+02
2.073104e+03,5.538844e+02
2.074068e+03,5.535784e+02
2.075032e+03,5.550576e+02
2.075996e+03,5.576260e+02
2.076960e+03,5.593285e+02
2.077925e+03,5.596798e+02
2.078889e+03,5.588046e+02
2.079853e+03,5.567089e+02
2.080817e+03,5.558903e+02
2.081781e+03,5.565507e+02
2.082746e+03,5.573080e+02
2.083710e+03,5.577969e+02
2.084674e+03,5.595511e+02
2.085638e+03,5.629596e+02
2.086603e+03,5.657312e+02
2.087567e+03,5.651121e+02
2.088531e+03,5.643464e+02
2.089495e+03,5.636959e+02
2.090459e+03,5.626012e+02
2.091424e+03,5.617050e+02
2.092388e+03,5.611463e+02
2.093352e+03,5.618770e+02
2.094316e+03,5.599732e+02
2.095281e+03,5.525359e+02
2.096245e+03,5.464230e+02
2.097209e+03,5.522137e+02
2.098173e+03,5.563597e+02
2.099138e+03,5.521987e+02
2.100102e+03,5.472211e+02
2.101066e+03,5.509697e+02
2.102030e+03,5.559571e+02
2.102995e+03,5.548705e+02
2.103959e+03,5.521787e+02
2.104923e+03,5.515502e+02
2.105887e+03,5.518698e+02
2.106852e+03,5.495173e+02
2.107816e+03,5.469551e+02
2.108780e+03,5.477712e+02
2.109744e+03,5.500744e+02
2.110708e+03,5.495314e+02
2.111673e+03,5.479176e+02
2.112637e+03,5.463275e+02
2.113601e+03,5.453923e+02
2.114565e+03,5.508244e+02
2.115530e+03,5.570674e+02
2.116494e+03,5.470006e+02
2.117458e+03,5.279039e+02
2.118422e+03,5.277334e+02
2.119387e+03,5.417578e+02
2.120351e+03,5.450495e+02
2.121315e+03,5.397759e+02
2.122279e+03,5.374887e+02
2.123244e+03,5.390688e+02
2.124208e+03,5.409174e+02
2.125172e+03,5.421723e+02
2.126136e+03,5.375628e+02
2.127101e+03,5.249611e+02
2.128065e+03,5.229893e+02
2.129029e+03,5.301480e+02
2.129993e+03,5.366489e+02
2.130958e+03,5.400484e+02
2.131922e+03,5.393404e+02
2.132886e+03,5.345995e+02
2.133850e+03,5.323469e+02
2.134814e+03,5.336360e+02
2.135779e+03,5.345458e+02
2.136743e+03,5.331534e+02
2.137707e+03,5.321262e+02
2.138671e+03,5.317285e+02
2.139635e+03,5.306659e+02
2.140600e+03,5.279830e+02
2.141564e+03,5.248671e+02
2.142528e+03,5.214352e+02
2.143492e+03,5.192725e+02
2.144457e+03,5.192032e+02
2.145421e+03,5.183265e+02
2.146385e+03,5.158571e+02
2.147349e+03,5.130769e+02
2.148313e+03,5.102184e+02
2.149278e+03,5.105087e+02
2.150242e+03,5.193873e+02
2.151206e+03,5.239091e+02
2.152170e+03,5.213078e+02
2.153135e+03,5.188773e+02
2.154099e+03,5.262356e+02
2.155063e+03,5.293367e+02
2.156027e+03,5.250331e+02
2.156992e+03,5.181840e+02
2.157956e+03,5.078979e+02
2.158920e+03,5.020284e+02
2.159884e+03,5.063100e+02
2.160849e+03,5.097993e+02
2.161813e+03,5.060899e+02
2.162777e+03,5.029943e+02
2.163741e+03,5.107321e+02
2.164706e+03,5.159818e+02
2.165670e+03,5.140820e+02
2.166634e+03,5.093222e+02
2.167598e+03,5.028227e+02
2.168563e+03,4.990594e+02
2.169527e+03,5.000336e+02
2.170491e+03,5.013893e+02
2.171455e+03,4.984757e+02
2.172419e+03,4.955512e+02
2.173384e+03,4.958477e+02
2.174348e+03,4.966545e+02
2.175312e+03,4.944936e+02
2.176276e+03,4.928456e+02
2.177241e+03,4.980417e+02
2.178205e+03,5.018208e+02
2.179169e+03,4.981455e+02
2.180133e+03,4.929359e+02
2.181098e+03,4.959390e+02
2.182062e+03,4.975086e+02
2.183026e+03,4.894965e+02
2.183990e+03,4.798802e+02
2.184955e+03,4.815699e+02
2.185919e+03,4.863242e+02
2.186883e+03,4.871204e+02
2.187847e+03,4.868527e+02
2.188812e+03,4.923200e+02
2.189776e+03,4.962852e+02
2.190740e+03,4.853286e+02
2.191704e+03,4.735229e+02
2.192668e+03,4.761431e+02
2.193633e+03,4.843700e+02
2.194597e+03,4.866219e+02
2.195561e+03,4.863458e+02
2.196525e+03,4.864527e+02
2.197490e+03,4.862734e+02
2.198454e+03,4.845008e+02
2.199418e+03,4.819296e+02
2.200382e+03,4.792477e+02
2.201346e+03,4.771751e+02
2.202311e+03,4.759186e+02
2.203275e+03,4.760682e+02
2.204239e+03,4.785783e+02
2.205203e+03,4.814290e+02
2.206167e+03,4.830608e+02
2.207132e+03,4.838755e+02
2.208096e+03,4.845656e+02
2.209060e+03,4.833828e+02
2.210024e+03,4.769420e+02
2.210989e+03,4.693769e+02
2.211953e+03,4.669720e+02
2.212917e+03,4.687403e+02
2.213881e+03,4.732170e+02
2.214846e+03,4.775696e+02
2.215810e+03,4.768098e+02
2.216774e+03,4.731964e+02
2.217738e+03,4.696313e+02
2.218703e+03,4.668634e+02
2.219667e+03,4.667182e+02
2.220631e+03,4.669539e+02
2.221595e+03,4.644262e+02
2.222560e+03,4.618322e+02
2.223524e+03,4.648158e+02
2.224488e+03,4.684355e+02
2.225452e+03,4.659473e+02
2.226417e+03,4.622420e+02
2.227381e+03,4.626455e+02
2.228345e+03,4.640788e+02
2.229309e+03,4.600820e+02
2.230273e+03,4.568280e+02
2.231238e+03,4.618198e+02
2.232202e+03,4.680180e+02
2.233166e+03,4.631812e+02
2.234130e+03,4.571118e+02
2.235095e+03,4.571680e+02
2.236059e+03,4.601986e+02
2.237023e+03,4.636830e+02
2.237987e+03,4.644803e+02
2.238952e+03,4.594376e+02
2.239916e+03,4.536550e+02
2.240880e+03,4.566583e+02
2.241844e+03,4.590071e+02
2.242809e+03,4.523686e+02
2.243773e+03,4.448962e+02
2.244737e+03,4.444896e+02
2.245701e+03,4.467040e+02
2.246666e+03,4.492204e+02
2.247630e+03,4.504166e+02
2.248594e+03,4.487525e+02
2.249558e+03,4.471449e+02
2.250522e+03,4.489338e+02
2.251487e+03,4.504132e+02
2.252451e+03,4.488782e+02
2.253415e+03,4.469173e+02
2.254379e+03,4.482479e+02
2.255344e+03,4.501877e+02
2.256308e+03,4.520264e+02
2.257272e+03,4.530216e+02
2.258236e+03,4.531903e+02
2.259200e+03,4.503198e+02
2.260165e+03,4.429627e+02
2.261129e+03,4.362404e+02
2.262093e+03,4.344750e+02
2.263057e+03,4.350290e+02
2.264022e+03,4.376473e+02
2.264986e+03,4.399288e+02
2.265950e+03,4.395913e+02
2.266914e+03,4.387925e+02
2.267879e+03,4.377784e+02
2.268843e+03,4.367055e+02
2.269807e+03,4.359008e+02
2.270771e+03,4.366452e+02
2.271736e+03,4.399532e+02
2.272700e+03,4.435663e+02
2.273664e+03,4.467749e+02
2.274628e+03,4.467795e+02
2.275593e+03,4.398867e+02
2.276557e+03,4.380959e+02
2.277521e+03,4.437120e+02
2.278485e+03,4.463393e+02
2.279449e+03,4.384553e+02
2.280414e+03,4.330633e+02
2.281378e+03,4.308842e+02
2.282342e+03,4.305405e+02
2.283306e+03,4.323184e+02
2.284271e+03,4.331008e+02
2.285235e+03,4.329021e+02
2.286199e+03,4.335939e+02
2.287163e+03,4.374711e+02
2.288127e+03,4.353460e+02
2.289092e+03,4.278803e+02
2.290056e+03,4.270778e+02
2.291020e+03,4.361766e+02
2.291984e+03,4.376837e+02
2.292948e+03,4.325858e+02
2.293913e+03,4.302912e+02
2.294877e+03,4.314771e+02
2.295841e+03,4.308857e+02
2.296805e+03,4.286762e+02
2.297770e+03,4.321245e+02
2.298734e+03,4.387231e+02
2.299698e+03,4.368120e+02
2.300662e+03,4.279392e+02
2.301627e+03,4.245852e+02
2.302591e+03,4.253101e+02
2.303555e+03,4.270266e+02
2.304519e+03,4.289155e+02
2.305484e+03,4.269276e+02
2.306448e+03,4.240838e+02
2.307412e+03,4.263824e+02
2.308376e+03,4.305424e+02
2.309341e+03,4.279927e+02
2.310305e+03,4.219995e+02
2.311269e+03,4.159556e+02
2.312233e+03,4.116646e+02
2.313198e+03,4.127343e+02
2.314162e+03,4.153017e+02
2.315126e+03,4.154268e+02
2.316090e+03,4.144713e+02
2.317054e+03,4.138737e+02
2.318019e+03,4.133546e+02
2.318983e+03,4.114411e+02
2.319947e+03,4.109586e+02
2.320911e+03,4.170806e+02
2.321876e+03,4.215122e+02
2.322840e+03,4.151358e+02
2.323804e+03,4.092310e+02
2.324768e+03,4.088585e+02
2.325733e+03,4.110794e+02
2.326697e+03,4.152094e+02
2.327661e+03,4.181184e+02
2.328625e+03,4.187111e+02
2.329590e+03,4.166079e+02
2.330554e+03,4.088397e+02
2.331518e+03,4.073324e+02
2.332482e+03,4.141478e+02
2.333447e+03,4.195708e+02
2.334411e+03,4.189136e+02
2.335375e+03,4.148550e+02
2.336339e+03,4.078529e+02
2.337303e+03,4.032291e+02
2.338268e+03,4.034469e+02
2.339232e+03,4.048290e+02
2.340196e+03,4.070792e+02
2.341160e+03,4.071833e+02
2.342125e+03,4.039297e+02
2.343089e+03,4.053808e+02
2.344053e+03,4.093006e+02
2.345017e+03,4.087237e+02
2.345981e+03,4.034649e+02
2.346946e+03,3.984393e+02
2.347910e+03,3.952675e+02
2.348874e+03,4.001352e+02
2.349838e+03,4.085460e+02
2.350802e+03,4.063134e+02
2.351767e+03,3.992746e+02
2.352731e+03,3.993799e+02
2.353695e+03,4.027603e+02
2.354659e+03,4.021129e+02
2.355624e+03,3.996511e+02
2.356588e+03,3.994479e+02
2.357552e+03,3.995341e+02
2.358516e+03,3.976082e+02
2.359481e+03,3.956339e+02
2.360445e+03,3.957646e+02
2.361409e+03,3.968563e+02
2.362373e+03,3.990435e+02
2.363338e+03,4.001041e+02
2.364302e+03,3.961916e+02
2.365266e+03,3.958430e+02
2.366230e+03,4.020306e+02
2.367195e+03,4.066125e+02
2.368159e+03,4.027014e+02
2.369123e+03,3.980449e+02
2.370087e+03,3.939514e+02
2.371052e+03,3.910910e+02
2.372016e+03,3.902968e+02
2.372980e+03,3.888726e+02
2.373944e+03,3.868004e+02
2.374908e+03,3.878663e+02
2.375873e+03,3.951328e+02
2.376837e+03,3.953532e+02
2.377801e+03,3.901013e+02
2.378765e+03,3.855521e+02
2.379730e+03,3.827498e+02
2.380694e+03,3.818644e+02
2.381658e+03,3.830537e+02
2.382622e+03,3.876972e+02
2.383587e+03,3.934161e+02
2.384551e+03,3.923081e+02
2.385515e+03,3.878581e+02
2.386479e+03,3.860674e+02
2.387444e+03,3.858495e+02
2.388408e+03,3.863075e+02
2.389372e+03,3.863795e+02
2.390336e+03,3.831237e+02
2.391301e+03,3.815773e+02
2.392265e+03,3.905494e+02
2.393229e+03,3.969668e+02
2.394193e+03,3.917910e+02
2.395157e+03,3.862047e+02
2.396122e+03,3.882067e+02
2.397086e+03,3.888420e+02
2.398050e+03,3.853428e+02
2.399014e+03,3.801268e+02
2.399979e+03,3.722350e+02
2.400943e+03,3.727334e+02
2.401907e+03,3.831744e+02
2.402871e+03,3.874971e+02
2.403835e+03,3.822325e+02
2.404800e+03,3.772213e+02
2.405764e+03,3.735670e+02
2.406728e+03,3.726334e+02
2.407692e+03,3.743570e+02
2.408656e+03,3.784044e+02
2.409621e+03,3.838659e+02
2.410585e+03,3.861782e+02
2.411549e+03,3.855539e+02
2.412513e+03,3.827751e+02
2.413478e+03,3.793375e+02
2.414442e+03,3.806368e+02
2.415406e+03,3.821948e+02
2.416370e+03,3.784618e+02
2.417335e+03,3.732986e+02
2.418299e+03,3.710979e+02
2.419263e+03,3.719555e+02
2.420227e+03,3.766040e+02
2.421192e+03,3.810347e+02
2.422156e+03,3.818980e+02
2.423120e+03,3.807651e+02
2.424084e+03,3.773644e+02
2.425049e+03,3.740882e+02
2.426013e+03,3.729804e+02
2.426977e+03,3.710691e+02
2.427941e+03,3.684646e+02
2.428906e+03,3.680831e+02
2.429870e+03,3.706999e+02
2.430834e+03,3.732238e+02
2.431798e+03,3.753312e+02
2.432762e+03,3.745802e+02
2.433727e+03,3.713282e+02
2.434691e+03,3.727412e+02
2.435655e+03,3.755782e+02
2.436619e+03,3.720664e+02
2.437584e+03,3.659255e+02
2.438548e+03,3.691825e+02
2.439512e+03,3.734552e+02
2.440476e+03,3.693395e+02
2.441441e+03,3.630717e+02
2.442405e+03,3.646227e+02
2.443369e+03,3.660067e+02
2.444333e+03,3.631357e+02
2.445298e+03,3.612018e+02
2.446262e+03,3.666426e+02
2.447226e+03,3.699976e+02
2.448190e+03,3.698439e+02
2.449155e+03,3.678432e+02
2.450119e+03,3.636021e+02
2.451083e+03,3.603040e+02
2.452047e+03,3.580160e+02
2.453011e+03,3.581915e+02
2.453976e+03,3.614460e+02
2.454940e+03,3.641490e+02
2.455904e+03,3.662476e+02
2.456868e+03,3.663698e+02
2.457833e+03,3.646746e+02
2.458797e+03,3.606055e+02
2.459761e+03,3.571673e+02
2.460725e+03,3.590310e+02
2.461689e+03,3.624962e+02
2.462654e+03,3.636546e+02
2.463618e+03,3.613693e+02
2.464582e+03,3.540931e+02
2.465546e+03,3.496125e+02
2.466510e+03,3.590477e+02
2.467475e+03,3.638902e+02
2.468439e+03,3.597682e+02
2.469403e+03,3.558677e+02
2.470367e+03,3.587967e+02
2.471332e+03,3.611042e+02
2.472296e+03,3.621564e+02
2.473260e+03,3.597505e+02
2.474224e+03,3.530016e+02
2.475189e+03,3.546474e+02
2.476153e+03,3.616934e+02
2.477117e+03,3.641411e+02
2.478081e+03,3.624537e+02
2.479046e+03,3.582601e+02
2.480010e+03,3.553691e+02
2.480974e+03,3.613301e+02
2.481938e+03,3.678105e+02
2.482903e+03,3.619763e+02
2.483867e+03,3.544174e+02
2.484831e+03,3.504223e+02
2.485795e+03,3.492324e+02
2.486760e+03,3.539528e+02
2.487724e+03,3.544432e+02
2.488688e+03,3.492363e+02
2.489652e+03,3.449396e+02
2.490616e+03,3.447259e+02
2.491581e+03,3.454105e+02
2.492545e+03,3.469638e+02
2.493509e+03,3.481731e+02
2.494473e+03,3.487685e+02
2.495438e+03,3.517116e+02
2.496402e+03,3.553143e+02
2.497366e+03,3.557902e+02
2.498330e+03,3.541194e+02
2.499295e+03,3.509461e+02
2.500259e+03,3.478592e+02
2.501223e+03,3.466560e+02
2.502187e+03,3.462405e+02
2.503152e+03,3.444726e+02
2.504116e+03,3.456235e+02
2.505080e+03,3.512231e+02
2.506044e+03,3.546105e+02
2.507009e+03,3.486955e+02
2.507973e+03,3.449745e+02
2.508937e+03,3.440858e+02
2.509901e+03,3.459128e+02
2.510865e+03,3.507172e+02
2.511830e+03,3.463636e+02
2.512794e+03,3.375109e+02
2.513758e+03,3.402087e+02
2.514722e+03,3.497806e+02
2.515687e+03,3.533813e+02
2.516651e+03,3.519083e+02
2.517615e+03,3.458551e+02
2.518579e+03,3.394347e+02
2.519543e+03,3.375375e+02
2.520508e+03,3.379174e+02
2.521472e+03,3.397415e+02
2.522436e+03,3.421066e+02
2.523400e+03,3.446011e+02
2.524365e+03,3.482505e+02
2.525329e+03,3.525501e+02
2.526293e+03,3.517401e+02
2.527257e+03,3.445859e+02
2.528221e+03,3.390960e+02
2.529186e+03,3.357651e+02
2.530150e+03,3.360928e+02
2.531114e+03,3.388742e+02
2.532078e+03,3.399688e+02
2.533043e+03,3.415682e+02
2.534007e+03,3.465599e+02
2.534971e+03,3.505746e+02
2.535935e+03,3.478597e+02
2.536900e+03,3.430295e+02
2.537864e+03,3.371888e+02
2.538828e+03,3.331254e+02
2.539792e+03,3.316810e+02
2.540757e+03,3.323936e+02
2.541721e+03,3.351861e+02
2.542685e+03,3.397731e+02
2.543649e+03,3.457654e+02
2.544614e+03,3.483348e+02
2.545578e+03,3.479077e+02
2.546542e+03,3.482536e+02
2.547506e+03,3.484006e+02
2.548470e+03,3.436400e+02
2.549435e+03,3.391368e+02
2.550399e+03,3.402574e+02
2.551363e+03,3.421159e+02
2.552327e+03,3.406212e+02
2.553292e+03,3.395298e+02
2.554256e+03,3.401001e+02
2.555220e+03,3.412416e+02
2.556184e+03,3.425344e+02
2.557149e+03,3.449400e+02
2.558113e+03,3.482307e+02
2.559077e+03,3.476829e+02
2.560041e+03,3.443037e+02
2.561006e+03,3.433968e+02
2.561970e+03,3.435703e+02
2.562934e+03,3.385687e+02
2.563898e+03,3.337251e+02
2.564863e+03,3.356768e+02
2.565827e+03,3.394907e+02
2.566791e+03,3.445783e+02
2.567755e+03,3.464649e+02
2.568719e+03,3.439533e+02
2.569684e+03,3.400464e+02
2.570648e+03,3.351581e+02
2.571612e+03,3.341674e+02
2.572576e+03,3.364774e+02
2.573541e+03,3.365416e+02
2.574505e+03,3.336320e+02
2.575469e+03,3.284472e+02
2.576433e+03,3.238260e+02
2.577397e+03,3.250786e+02
2.578362e+03,3.283936e+02
2.579326e+03,3.307390e+02
2.580290e+03,3.294228e+02
2.581254e+03,3.228542e+02
2.582219e+03,3.184624e+02
2.583183e+03,3.249452e+02
2.584147e+03,3.274883e+02
2.585111e+03,3.260100e+02
2.586075e+03,3.235930e+02
2.587040e+03,3.208745e+02
2.588004e+03,3.199707e+02
2.588968e+03,3.205087e+02
2.589932e+03,3.225034e+02
2.590897e+03,3.247242e+02
2.591861e+03,3.244996e+02
2.592825e+03,3.232255e+02
2.593789e+03,3.212079e+02
2.594754e+03,3.204922e+02
2.595718e+03,3.235719e+02
2.596682e+03,3.247136e+02
2.597646e+03,3.225581e+02
2.598611e+03,3.175997e+02
2.599575e+03,3.111802e+02
2.600539e+03,3.133647e+02
2.601503e+03,3.215837e+02
2.602468e+03,3.206117e+02
2.603432e+03,3.154196e+02
2.604396e+03,3.169778e+02
2.605360e+03,3.196755e+02
2.606324e+03,3.175589e+02
2.607289e+03,3.152576e+02
2.608253e+03,3.148472e+02
2.609217e+03,3.153387e+02
2.610181e+03,3.162843e+02
2.611146e+03,3.168784e+02
2.612110e+03,3.169096e+02
2.613074e+03,3.130805e+02
2.614038e+03,3.067798e+02
2.615003e+03,3.079401e+02
2.615967e+03,3.128970e+02
2.616931e+03,3.180322e+02
2.617895e+03,3.208251e+02
2.618860e+03,3.146484e+02
2.619824e+03,3.101873e+02
2.620788e+03,3.111299e+02
2.621752e+03,3.149667e+02
2.622717e+03,3.229250e+02
2.623681e+03,3.252579e+02
2.624645e+03,3.220261e+02
2.625609e+03,3.180779e+02
2.626573e+03,3.145970e+02
2.627538e+03,3.168926e+02
2.628502e+03,3.203912e+02
2.629466e+03,3.168604e+02
2.630430e+03,3.122071e+02
2.631395e+03,3.159381e+02
2.632359e+03,3.181544e+02
2.633323e+03,3.146732e+02
2.634287e+03,3.128161e+02
2.635251e+03,3.143479e+02
2.636216e+03,3.144101e+02
2.637180e+03,3.121441e+02
2.638144e+03,3.126515e+02
2.639108e+03,3.144344e+02
2.640073e+03,3.129641e+02
2.641037e+03,3.111835e+02
2.642001e+03,3.142693e+02
2.642965e+03,3.153270e+02
2.643929e+03,3.099071e+02
2.644894e+03,3.058152e+02
2.645858e+03,3.102711e+02
2.646822e+03,3.125974e+02
2.647786e+03,3.121592e+02
2.648751e+03,3.113070e+02
2.649715e+03,3.104970e+02
2.650679e+03,3.113280e+02
2.651643e+03,3.124449e+02
2.652608e+03,3.117364e+02
2.653572e+03,3.100649e+02
2.654536e+03,3.088009e+02
2.655500e+03,3.067411e+02
2.656465e+03,3.030220e+02
2.657429e+03,3.020704e+02
2.658393e+03,3.052826e+02
2.659357e+03,3.051075e+02
2.660322e+03,3.019028e+02
2.661286e+03,3.032635e+02
2.662250e+03,3.072648e+02
2.663214e+03,3.073983e+02
2.664178e+03,3.066588e+02
2.665143e+03,3.104858e+02
2.666107e+03,3.122943e+02
2.667071e+03,3.082759e+02
2.668035e+03,3.056323e+02
2.669000e+03,3.083229e+02
2.669964e+03,3.128753e+02
2.670928e+03,3.177686e+02
2.671892e+03,3.136797e+02
2.672857e+03,3.036908e+02
2.673821e+03,3.042089e+02
2.674785e+03,3.077453e+02
2.675749e+03,3.054120e+02
2.676714e+03,3.032580e+02
2.677678e+03,3.101192e+02
2.678642e+03,3.151588e+02
2.679606e+03,3.162875e+02
2.680571e+03,3.120778e+02
2.681535e+03,3.031556e+02
2.682499e+03,2.985692e+02
2.683463e+03,2.991599e+02
2.684427e+03,3.054209e+02
2.685392e+03,3.124613e+02
2.686356e+03,3.103570e+02
2.687320e+03,3.053571e+02
2.688284e+03,2.996721e+02
2.689249e+03,2.956980e+02
2.690213e+03,2.935405e+02
2.691177e+03,2.934879e+02
2.692141e+03,2.963292e+02
2.693105e+03,2.983222e+02
2.694070e+03,2.993788e+02
2.695034e+03,2.987935e+02
2.695998e+03,2.974936e+02
2.696962e+03,2.961238e+02
2.697927e+03,2.963921e+02
2.698891e+03,2.988363e+02
2.699855e+03,3.013692e+02
2.700819e+03,3.032911e+02
2.701783e+03,3.052025e+02
2.702748e+03,3.064384e+02
2.703712e+03,3.033053e+02
2.704676e+03,2.980151e+02
2.705640e+03,2.988729e+02
2.706605e+03,3.018100e+02
2.707569e+03,3.021686e+02
2.708533e+03,3.004098e+02
2.709497e+03,2.963075e+02
2.710462e+03,2.947236e+02
2.711426e+03,2.992542e+02
2.712390e+03,3.044180e+02
2.713354e+03,3.088401e+02
2.714319e+03,3.056920e+02
2.715283e+03,2.986204e+02
2.716247e+03,2.937055e+02
2.717211e+03,2.936892e+02
2.718176e+03,3.007911e+02
2.719140e+03,3.060734e+02
2.720104e+03,3.020454e+02
2.721068e+03,2.999854e+02
2.722032e+03,3.010775e+02
2.722997e+03,3.005730e+02
2.723961e+03,2.988858e+02
2.724925e+03,3.014446e+02
2.725889e+03,3.038530e+02
2.726854e+03,2.964310e+02
2.727818e+03,2.921358e+02
2.728782e+03,2.984104e+02
2.729746e+03,3.021422e+02
2.730711e+03,2.928198e+02
2.731675e+03,2.973576e+02
2.732639e+03,3.113571e+02
2.733603e+03,3.088152e+02
2.734568e+03,2.967905e+02
2.735532e+03,2.959913e+02
2.736496e+03,2.989261e+02
2.737460e+03,3.001511e+02
2.738425e+03,3.001254e+02
2.739389e+03,2.986615e+02
2.740353e+03,2.972339e+02
2.741317e+03,2.965538e+02
2.742281e+03,3.009019e+02
2.743246e+03,3.072545e+02
2.744210e+03,3.028182e+02
2.745174e+03,2.946953e+02
2.746138e+03,2.915615e+02
2.747103e+03,2.920237e+02
2.748067e+03,2.954555e+02
2.749031e+03,2.964380e+02
2.749995e+03,2.896999e+02
2.750959e+03,2.904932e+02
2.751924e+03,2.960241e+02
2.752888e+03,2.972291e+02
2.753852e+03,2.950425e+02
2.754816e+03,2.899467e+02
2.755781e+03,2.874989e+02
2.756745e+03,2.918803e+02
2.757709e+03,2.928395e+02
2.758673e+03,2.868610e+02
2.759637e+03,2.876203e+02
2.760602e+03,2.963163e+02
2.761566e+03,2.952293e+02
2.762530e+03,2.893714e+02
2.763494e+03,2.859663e+02
2.764459e+03,2.846821e+02
2.765423e+03,2.875096e+02
2.766387e+03,2.874780e+02
2.767351e+03,2.834945e+02
2.768316e+03,2.872164e+02
2.769280e+03,3.003753e+02
2.770244e+03,2.971838e+02
2.771208e+03,2.868195e+02
2.772173e+03,2.902522e+02
2.773137e+03,2.956982e+02
2.774101e+03,2.893600e+02
2.775065e+03,2.836521e+02
2.776030e+03,2.829100e+02
2.776994e+03,2.858805e+02
2.777958e+03,2.903737e+02
2.778922e+03,2.852196e+02
2.779886e+03,2.759111e+02
2.780851e+03,2.792041e+02
2.781815e+03,2.872352e+02
2.782779e+03,2.949770e+02
2.783743e+03,2.979775e+02
2.784708e+03,2.912910e+02
2.785672e+03,2.864988e+02
2.786636e+03,2.848864e+02
2.787600e+03,2.876211e+02
2.788565e+03,2.918250e+02
2.789529e+03,2.876347e+02
2.790493e+03,2.832197e+02
2.791457e+03,2.872339e+02
2.792422e+03,2.891620e+02
2.793386e+03,2.870785e+02
2.794350e+03,2.863861e+02
2.795314e+03,2.882179e+02
2.796279e+03,2.882971e+02
2.797243e+03,2.887119e+02
2.798207e+03,2.948145e+02
2.799171e+03,2.990662e+02
2.800135e+03,2.871560e+02
2.801100e+03,2.800967e+02
2.802064e+03,2.832424e+02
2.803028e+03,2.868939e+02
2.803992e+03,2.894903e+02
2.804957e+03,2.904499e+02
2.805921e+03,2.908373e+02
2.806885e+03,2.932292e+02
2.807849e+03,2.934128e+02
2.808813e+03,2.894565e+02
2.809778e+03,2.866014e+02
2.810742e+03,2.887411e+02
2.811706e+03,2.822450e+02
2.812670e+03,2.715002e+02
2.813635e+03,2.724909e+02
2.814599e+03,2.807347e+02
2.815563e+03,2.926052e+02
2.816527e+03,2.994063e+02
2.817491e+03,2.943612e+02
2.818456e+03,2.924430e+02
2.819420e+03,2.946443e+02
2.820384e+03,2.922525e+02
2.821348e+03,2.866943e+02
2.822313e+03,2.862936e+02
2.823277e+03,2.860843e+02
2.824241e+03,2.816226e+02
2.825205e+03,2.779042e+02
2.826170e+03,2.786073e+02
2.827134e+03,2.773021e+02
2.828098e+03,2.743509e+02
2.829062e+03,2.795438e+02
2.830027e+03,2.875067e+02
2.830991e+03,2.858301e+02
2.831955e+03,2.831640e+02
2.832919e+03,2.848830e+02
2.833884e+03,2.885705e+02
2.834848e+03,2.933839e+02
2.835812e+03,2.991004e+02
2.836776e+03,3.047124e+02
2.837740e+03,2.999765e+02
2.838705e+03,2.927898e+02
2.839669e+03,2.927423e+02
2.840633e+03,2.907192e+02
2.841597e+03,2.810788e+02
2.842562e+03,2.782834e+02
2.843526e+03,2.868202e+02
2.844490e+03,2.949900e+02
2.845454e+03,2.993163e+02
2.846419e+03,2.921067e+02
2.847383e+03,2.846263e+02
2.848347e+03,2.928725e+02
2.849311e+03,2.944147e+02
2.850276e+03,2.856893e+02
2.851240e+03,2.847699e+02
2.852204e+03,2.909718e+02
2.853168e+03,2.965237e+02
2.854133e+03,2.985904e+02
2.855097e+03,2.873700e+02
2.856061e+03,2.887246e+02
2.857025e+03,3.091001e+02
2.857990e+03,3.160682e+02
2.858954e+03,2.997184e+02
2.859918e+03,2.930225e+02
2.860882e+03,2.934354e+02
2.861846e+03,2.959370e+02
2.862811e+03,2.987926e+02
2.863775e+03,3.003037e+02
2.864739e+03,3.033726e+02
2.865703e+03,3.087749e+02
2.866667e+03,3.049470e+02
2.867632e+03,2.979288e+02
2.868596e+03,3.087801e+02
2.869560e+03,3.223377e+02
2.870524e+03,3.215423e+02
2.871489e+03,3.127023e+02
2.872453e+03,2.976388e+02
2.873417e+03,3.000165e+02
2.874381e+03,3.167740e+02
2.875345e+03,3.173276e+02
2.876310e+03,3.116754e+02
2.877274e+03,3.155923e+02
2.878238e+03,3.193076e+02
2.879202e+03,3.188231e+02
2.880167e+03,3.181813e+02
2.881131e+03,3.189918e+02
2.882095e+03,3.181298e+02
2.883059e+03,3.169616e+02
2.884024e+03,3.176108e+02
2.884988e+03,3.180652e+02
2.885952e+03,3.160297e+02
2.886916e+03,3.152133e+02
2.887881e+03,3.168996e+02
2.888845e+03,3.165878e+02
2.889809e+03,3.160325e+02
2.890773e+03,3.198458e+02
2.891738e+03,3.237372e+02
2.892702e+03,3.235166e+02
2.893666e+03,3.221460e+02
2.894630e+03,3.202963e+02
2.895594e+03,3.203653e+02
2.896559e+03,3.210086e+02
2.897523e+03,3.125075e+02
2.898487e+03,3.061708e+02
2.899451e+03,3.196297e+02
2.900416e+03,3.272594e+02
2.901380e+03,3.236579e+02
2.902344e+03,3.183233e+02
2.903308e+03,3.140991e+02
2.904273e+03,3.221409e+02
2.905237e+03,3.290810e+02
2.906201e+03,3.195975e+02
2.907165e+03,3.098373e+02
2.908130e+03,3.065825e+02
2.909094e+03,3.154864e+02
2.910058e+03,3.339649e+02
2.911022e+03,3.244616e+02
2.911987e+03,3.072558e+02
2.912951e+03,3.045339e+02
2.913915e+03,3.079777e+02
2.914879e+03,3.145493e+02
2.915844e+03,3.121676e+02
2.916808e+03,3.022392e+02
2.917772e+03,3.023516e+02
2.918736e+03,3.064159e+02
2.919700e+03,3.033509e+02
2.920665e+03,3.016357e+02
2.921629e+03,3.111847e+02
2.922593e+03,3.115321e+02
2.923557e+03,3.044740e+02
2.924521e+03,3.035084e+02
2.925486e+03,3.052305e+02
2.926450e+03,2.987089e+02
2.927414e+03,2.937559e+02
2.928378e+03,2.957879e+02
2.929343e+03,2.937729e+02
2.930307e+03,2.886164e+02
2.931271e+03,2.942438e+02
2.932235e+03,3.044695e+02
2.933199e+03,3.085973e+02
2.934164e+03,3.095664e+02
2.935128e+03,3.082083e+02
2.936092e+03,3.073255e+02
2.937056e+03,3.073732e+02
2.938021e+03,3.064522e+02
2.938985e+03,3.052219e+02
2.939949e+03,3.044029e+02
2.940913e+03,3.033017e+02
2.941878e+03,3.018771e+02
2.942842e+03,2.985350e+02
2.943806e+03,2.933410e+02
2.944770e+03,2.999508e+02
2.945735e+03,3.088345e+02
2.946699e+03,3.044508e+02
2.947663e+03,3.030777e+02
2.948627e+03,3.093777e+02
2.949592e+03,3.180421e+02
2.950556e+03,3.267791e+02
2.951520e+03,3.208114e+02
2.952484e+03,3.111970e+02
2.953448e+03,3.094092e+02
2.954413e+03,3.117738e+02
2.955377e+03,3.164969e+02
2.956341e+03,3.270146e+02
2.957305e+03,3.411702e+02
2.958270e+03,3.529115e+02
2.959234e+03,3.463796e+02
2.960198e+03,3.100125e+02
2.961162e+03,2.835124e+02
2.962127e+03,2.851535e+02
2.963091e+03,2.919575e+02
2.964055e+03,2.986139e+02
2.965019e+03,2.941396e+02
2.965984e+03,2.902832e+02
2.966948e+03,2.957935e+02
2.967912e+03,2.980697e+02
2.968876e+03,2.901664e+02
2.969841e+03,2.897373e+02
2.970805e+03,2.939224e+02
2.971769e+03,2.996236e+02
2.972733e+03,2.961345e+02
2.973698e+03,2.734326e+02
2.974662e+03,2.643179e+02
2.975626e+03,2.785837e+02
2.976590e+03,2.875587e+02
2.977554e+03,2.895052e+02
2.978519e+03,2.813727e+02
2.979483e+03,2.770104e+02
2.980447e+03,2.883074e+02
2.981411e+03,2.857042e+02
2.982375e+03,2.697540e+02
2.983340e+03,2.779370e+02
2.984304e+03,2.910369e+02
2.985268e+03,2.891135e+02
2.986232e+03,2.878922e+02
2.987197e+03,2.984501e+02
2.988161e+03,2.927430e+02
2.989125e+03,2.772940e+02
2.990089e+03,2.777186e+02
2.991053e+03,2.820582e+02
2.992018e+03,2.807542e+02
2.992982e+03,2.748423e+02
2.993946e+03,2.625312e+02
2.994910e+03,2.777605e+02
2.995875e+03,3.004398e+02
2.996839e+03,2.958315e+02
2.997803e+03,2.855272e+02
2.998767e+03,2.844825e+02
2.999732e+03,2.765898e+02
3.000696e+03,2.613413e+02
3.001660e+03,2.677260e+02
3.002624e+03,2.795309e+02
3.003589e+03,2.803068e+02
3.004553e+03,2.787823e+02
3.005517e+03,2.794557e+02
3.006481e+03,2.806851e+02
3.007446e+03,2.817876e+02
3.008410e+03,2.804283e+02
3.009374e+03,2.842413e+02
3.010338e+03,2.987085e+02
3.011302e+03,2.986235e+02
3.012267e+03,2.754439e+02
3.013231e+03,2.672477e+02
3.014195e+03,2.705446e+02
3.015159e+03,2.792141e+02
3.016124e+03,2.846281e+02
3.017088e+03,2.840854e+02
3.018052e+03,2.912747e+02
3.019016e+03,3.054288e+02
3.019981e+03,3.052464e+02
3.020945e+03,2.965888e+02
3.021909e+03,2.834433e+02
3.022873e+03,2.740458e+02
3.023838e+03,2.700717e+02
3.024802e+03,2.859209e+02
3.025766e+03,3.076539e+02
3.026730e+03,2.961043e+02
3.027695e+03,2.825973e+02
3.028659e+03,2.809574e+02
3.029623e+03,2.881689e+02
3.030587e+03,2.979583e+02
3.031552e+03,2.802451e+02
3.032516e+03,2.589282e+02
3.033480e+03,2.658576e+02
3.034444e+03,2.704693e+02
3.035408e+03,2.676498e+02
3.036373e+03,2.685852e+02
3.037337e+03,2.726475e+02
3.038301e+03,2.784006e+02
3.039265e+03,2.806163e+02
3.040229e+03,2.708317e+02
3.041194e+03,2.743669e+02
3.042158e+03,2.878747e+02
3.043122e+03,2.959897e+02
3.044086e+03,2.989888e+02
3.045051e+03,2.948437e+02
3.046015e+03,2.960254e+02
3.046979e+03,3.067053e+02
3.047943e+03,2.841375e+02
3.048907e+03,2.541146e+02
3.049872e+03,2.554998e+02
3.050836e+03,2.704135e+02
3.051800e+03,2.901539e+02
3.052764e+03,2.928035e+02
3.053729e+03,2.815936e+02
3.054693e+03,2.942810e+02
3.055657e+03,3.056225e+02
3.056621e+03,2.972014e+02
3.057586e+03,2.947815e+02
3.058550e+03,3.063163e+02
3.059514e+03,3.080929e+02
3.060478e+03,3.023287e+02
3.061443e+03,2.909070e+02
3.062407e+03,2.821324e+02
3.063371e+03,2.778058e+02
3.064335e+03,2.740368e+02
3.065300e+03,2.714804e+02
3.066264e+03,2.764425e+02
3.067228e+03,2.867126e+02
3.068192e+03,3.041347e+02
3.069156e+03,3.010762e+02
3.070121e+03,2.848355e+02
3.071085e+03,3.014846e+02
3.072049e+03,3.213997e+02
3.073013e+03,2.881325e+02
3.073978e+03,2.679370e+02
3.074942e+03,2.745948e+02
3.075906e+03,2.775216e+02
3.076870e+03,2.791397e+02
3.077835e+03,2.863211e+02
3.078799e+03,2.929852e+02
3.079763e+03,2.963593e+02
3.080727e+03,2.861681e+02
3.081692e+03,2.692952e+02
3.082656e+03,2.697278e+02
3.083620e+03,2.762583e+02
3.084584e+03,2.813951e+02
3.085549e+03,2.931198e+02
3.086513e+03,3.116874e+02
3.087477e+03,2.989577e+02
3.088441e+03,2.800548e+02
3.089406e+03,2.837362e+02
3.090370e+03,2.861352e+02
3.091334e+03,2.830492e+02
3.092298e+03,2.816752e+02
3.093262e+03,2.815229e+02
3.094227e+03,2.807763e+02
3.095191e+03,2.787669e+02
3.096155e+03,2.750536e+02
3.097119e+03,2.776450e+02
3.098083e+03,2.833366e+02
3.099048e+03,2.835755e+02
3.100012e+03,2.875934e+02
3.100976e+03,3.066485e+02
3.101940e+03,3.053040e+02
3.102905e+03,2.862868e+02
3.103869e+03,2.855295e+02
3.104833e+03,2.938314e+02
3.105797e+03,3.047831e+02
3.106761e+03,3.002546e+02
3.107726e+03,2.802234e+02
3.108690e+03,2.849896e+02
3.109654e+03,2.966051e+02
3.110618e+03,2.910451e+02
3.111583e+03,2.891562e+02
3.112547e+03,2.941625e+02
3.113511e+03,3.038752e+02
3.114475e+03,3.102044e+02
3.115440e+03,2.874297e+02
3.116404e+03,2.751113e+02
3.117368e+03,2.914918e+02
3.118332e+03,3.035762e+02
3.119297e+03,3.091994e+02
3.120261e+03,3.072773e+02
3.121225e+03,3.032485e+02
3.122189e+03,2.997650e+02
3.123154e+03,2.993768e+02
3.124118e+03,3.029923e+02
3.125082e+03,3.214961e+02
3.126046e+03,3.241462e+02
3.127010e+03,2.970488e+02
3.127975e+03,2.859996e+02
3.128939e+03,2.924957e+02
3.129903e+03,3.076710e+02
3.130867e+03,3.148582e+02
3.131832e+03,2.862151e+02
3.132796e+03,2.799810e+02
3.133760e+03,2.954037e+02
3.134724e+03,2.996982e+02
3.135689e+03,3.035907e+02
3.136653e+03,3.195933e+02
3.137617e+03,3.247137e+02
3.138581e+03,3.122426e+02
3.139546e+03,3.130827e+02
3.140510e+03,3.161601e+02
3.141474e+03,3.101521e+02
3.142438e+03,3.017017e+02
3.143403e+03,2.939342e+02
3.144367e+03,2.991499e+02
3.145331e+03,3.078316e+02
3.146295e+03,3.025743e+02
3.147260e+03,2.993151e+02
3.148224e+03,3.016413e+02
3.149188e+03,3.090581e+02
3.150152e+03,3.120570e+02
3.151116e+03,2.986315e+02
3.152081e+03,2.851654e+02
3.153045e+03,2.781405e+02
3.154009e+03,2.811952e+02
3.154973e+03,2.907404e+02
3.155938e+03,3.034820e+02
3.156902e+03,3.041101e+02
3.157866e+03,2.904532e+02
3.158830e+03,2.827517e+02
3.159794e+03,2.835581e+02
3.160759e+03,2.968828e+02
3.161723e+03,3.100195e+02
3.162687e+03,3.172952e+02
3.163651e+03,3.214681e+02
3.164615e+03,3.207432e+02
3.165580e+03,3.105264e+02
3.166544e+03,3.042066e+02
3.167508e+03,3.068667e+02
3.168472e+03,3.064240e+02
3.169437e+03,3.032123e+02
3.170401e+03,3.032829e+02
3.171365e+03,3.019467e+02
3.172329e+03,2.972655e+02
3.173294e+03,3.067342e+02
3.174258e+03,3.222648e+02
3.175222e+03,3.267940e+02
3.176186e+03,3.243352e+02
3.177151e+03,3.180898e+02
3.178115e+03,2.968275e+02
3.179079e+03,2.743547e+02
3.180043e+03,2.953575e+02
3.181008e+03,3.173588e+02
3.181972e+03,3.240411e+02
3.182936e+03,3.275019e+02
3.183900e+03,3.293121e+02
3.184865e+03,3.232080e+02
3.185829e+03,3.214951e+02
3.186793e+03,3.425347e+02
3.187757e+03,3.326771e+02
3.188721e+03,3.097327e+02
3.189686e+03,3.156227e+02
3.190650e+03,3.247990e+02
3.191614e+03,3.257751e+02
3.192578e+03,3.199600e+02
3.193543e+03,3.111252e+02
3.194507e+03,3.043421e+02
3.195471e+03,3.074095e+02
3.196435e+03,3.248136e+02
3.197400e+03,3.242678e+02
3.198364e+03,3.198641e+02
3.199328e+03,3.396395e+02
3.200292e+03,3.478990e+02
