1.995979e+02,6.192914e+03
2.005621e+02,6.196757e+03
2.015264e+02,6.202050e+03
2.024906e+02,6.210056e+03
2.034548e+02,6.218334e+03
2.044191e+02,6.225113e+03
2.053833e+02,6.229429e+03
2.063475e+02,6.231690e+03
2.073118e+02,6.233646e+03
2.082760e+02,6.236986e+03
2.092402e+02,6.234524e+03
2.102045e+02,6.219460e+03
2.111687e+02,6.206022e+03
2.121329e+02,6.205182e+03
2.130972e+02,6.222518e+03
2.140614e+02,6.249417e+03
2.150256e+02,6.266663e+03
2.159899e+02,6.271068e+03
2.169541e+02,6.270743e+03
2.179183e+02,6.268077e+03
2.188826e+02,6.263531e+03
2.198468e+02,6.260861e+03
2.208110e+02,6.264295e+03
2.217753e+02,6.272787e+03
2.227395e+02,6.276417e+03
2.237037e+02,6.273593e+03
2.246680e+02,6.269099e+03
2.256322e+02,6.266202e+03
2.265964e+02,6.268580e+03
2.275607e+02,6.273283e+03
2.285249e+02,6.275140e+03
2.294891e+02,6.273036e+03
2.304534e+02,6.274471e+03
2.314176e+02,6.284358e+03
2.323818e+02,6.299586e+03
2.333461e+02,6.312181e+03
2.343103e+02,6.319980e+03
2.352745e+02,6.325129e+03
2.362388e+02,6.330049e+03
2.372030e+02,6.333940e+03
2.381672e+02,6.334443e+03
2.391315e+02,6.331441e+03
2.400957e+02,6.326550e+03
2.410599e+02,6.322477e+03
2.420242e+02,6.323697e+03
2.429884e+02,6.329911e+03
2.439526e+02,6.335135e+03
2.449169e+02,6.332585e+03
2.458811e+02,6.319665e+03
2.468453e+02,6.311645e+03
2.478096e+02,6.308483e+03
2.487738e+02,6.309876e+03
2.497380e+02,6.318324e+03
2.507023e+02,6.333884e+03
2.516665e+02,6.350653e+03
2.526307e+02,6.358427e+03
2.535950e+02,6.339474e+03
2.545592e+02,6.327390e+03
2.555234e+02,6.329989e+03
2.564877e+02,6.339964e+03
2.574519e+02,6.349132e+03
2.584161e+02,6.353663e+03
2.593804e+02,6.354966e+03
2.603446e+02,6.357894e+03
2.613088e+02,6.359590e+03
2.622731e+02,6.361909e+03
2.632373e+02,6.365017e+03
2.642015e+02,6.367650e+03
2.651658e+02,6.369611e+03
2.661300e+02,6.373115e+03
2.670942e+02,6.380742e+03
2.680585e+02,6.387482e+03
2.690227e+02,6.393008e+03
2.699869e+02,6.396637e+03
2.709512e+02,6.397186e+03
2.719154e+02,6.396217e+03
2.728796e+02,6.394055e+03
2.738439e+02,6.388756e+03
2.748081e+02,6.379554e+03
2.757723e+02,6.377201e+03
2.767366e+02,6.388862e+03
2.777008e+02,6.407940e+03
2.786650e+02,6.420317e+03
2.796293e+02,6.418232e+03
2.805935e+02,6.409940e+03
2.815577e+02,6.408745e+03
2.825220e+02,6.417956e+03
2.834862e+02,6.430912e+03
2.844504e+02,6.436894e+03
2.854147e+02,6.435232e+03
2.863789e+02,6.432320e+03
2.873431e+02,6.431315e+03
2.883074e+02,6.432611e+03
2.892716e+02,6.434767e+03
2.902358e+02,6.435839e+03
2.912001e+02,6.434996e+03
2.921643e+02,6.432159e+03
2.931285e+02,6.425797e+03
2.940928e+02,6.421659e+03
2.950570e+02,6.421914e+03
2.960212e+02,6.425272e+03
2.969855e+02,6.428972e+03
2.979497e+02,6.431784e+03
2.989139e+02,6.436271e+03
2.998782e+02,6.437069e+03
3.008424e+02,6.434988e+03
3.018066e+02,6.432938e+03
3.027709e+02,6.430210e+03
3.037351e+02,6.424907e+03
3.046993e+02,6.419057e+03
3.056636e+02,6.419000e+03
3.066278e+02,6.428992e+03
3.075920e+02,6.438022e+03
3.085563e+02,6.438863e+03
3.095205e+02,6.436155e+03
3.104847e+02,6.437686e+03
3.114490e+02,6.448723e+03
3.124132e+02,6.463373e+03
3.133774e+02,6.470768e+03
3.143417e+02,6.467780e+03
3.153059e+02,6.458664e+03
3.162701e+02,6.450756e+03
3.172344e+02,6.445155e+03
3.181986e+02,6.442917e+03
3.191628e+02,6.447872e+03
3.201271e+02,6.456867e+03
3.210913e+02,6.462693e+03
3.220555e+02,6.460843e+03
3.230198e+02,6.452664e+03
3.239840e+02,6.450393e+03
3.249482e+02,6.455975e+03
3.259125e+02,6.464141e+03
3.268767e+02,6.477872e+03
3.278409e+02,6.494240e+03
3.288052e+02,6.505742e+03
3.297694e+02,6.503577e+03
3.307336e+02,6.484002e+03
3.316979e+02,6.470269e+03
3.326621e+02,6.466006e+03
3.336263e+02,6.463985e+03
3.345906e+02,6.462734e+03
3.355548e+02,6.463940e+03
3.365190e+02,6.466312e+03
3.374833e+02,6.465041e+03
3.384475e+02,6.458515e+03
3.394117e+02,6.458243e+03
3.403760e+02,6.472130e+03
3.413402e+02,6.492195e+03
3.423044e+02,6.504753e+03
3.432687e+02,6.498538e+03
3.442329e+02,6.488927e+03
3.451971e+02,6.491224e+03
3.461614e+02,6.504120e+03
3.471256e+02,6.513307e+03
3.480898e+02,6.508345e+03
3.490541e+02,6.484817e+03
3.500183e+02,6.468564e+03
3.509825e+02,6.463826e+03
3.519468e+02,6.466909e+03
3.529110e+02,6.475877e+03
3.538752e+02,6.488687e+03
3.548395e+02,6.500225e+03
3.558037e+02,6.502612e+03
3.567679e+02,6.487773e+03
3.577322e+02,6.477367e+03
3.586964e+02,6.477359e+03
3.596606e+02,6.484209e+03
3.606249e+02,6.492520e+03
3.615891e+02,6.498503e+03
3.625533e+02,6.499648e+03
3.635176e+02,6.493967e+03
3.644818e+02,6.481204e+03
3.654460e+02,6.468752e+03
3.664103e+02,6.462939e+03
3.673745e+02,6.465803e+03
3.683387e+02,6.474702e+03
3.693030e+02,6.488805e+03
3.702672e+02,6.503951e+03
3.712314e+02,6.515673e+03
3.721957e+02,6.522526e+03
3.731599e+02,6.524787e+03
3.741241e+02,6.525112e+03
3.750884e+02,6.530613e+03
3.760526e+02,6.532017e+03
3.770168e+02,6.522687e+03
3.779811e+02,6.508942e+03
3.789453e+02,6.498373e+03
3.799095e+02,6.494411e+03
3.808738e+02,6.494756e+03
3.818380e+02,6.492647e+03
3.828022e+02,6.488996e+03
3.837665e+02,6.487609e+03
3.847307e+02,6.488435e+03
3.856949e+02,6.491141e+03
3.866592e+02,6.494772e+03
3.876234e+02,6.500416e+03
3.885876e+02,6.506179e+03
3.895519e+02,6.505769e+03
3.905161e+02,6.495542e+03
3.914803e+02,6.482860e+03
3.924446e+02,6.477229e+03
3.934088e+02,6.481398e+03
3.943730e+02,6.485933e+03
3.953373e+02,6.488960e+03
3.963015e+02,6.490232e+03
3.972657e+02,6.489466e+03
3.982300e+02,6.487294e+03
3.991942e+02,6.485738e+03
4.001584e+02,6.484919e+03
4.011227e+02,6.475994e+03
4.020869e+02,6.473546e+03
4.030511e+02,6.482945e+03
4.040154e+02,6.496802e+03
4.049796e+02,6.506193e+03
4.059438e+02,6.504399e+03
4.069081e+02,6.494104e+03
4.078723e+02,6.485109e+03
4.088365e+02,6.474964e+03
4.098008e+02,6.465679e+03
4.107650e+02,6.463127e+03
4.117292e+02,6.467401e+03
4.126935e+02,6.472063e+03
4.136577e+02,6.475088e+03
4.146219e+02,6.476946e+03
4.155862e+02,6.478339e+03
4.165504e+02,6.479571e+03
4.175146e+02,6.481124e+03
4.184789e+02,6.483417e+03
4.194431e+02,6.490279e+03
4.204073e+02,6.492424e+03
4.213716e+02,6.485345e+03
4.223358e+02,6.474925e+03
4.233000e+02,6.468138e+03
4.242643e+02,6.469402e+03
4.252285e+02,6.474743e+03
4.261927e+02,6.472634e+03
4.271570e+02,6.458954e+03
4.281212e+02,6.448666e+03
4.290854e+02,6.448654e+03
4.300497e+02,6.455197e+03
4.310139e+02,6.461769e+03
4.319781e+02,6.469584e+03
4.329424e+02,6.476614e+03
4.339066e+02,6.478846e+03
4.348708e+02,6.475140e+03
4.358351e+02,6.468279e+03
4.367993e+02,6.460826e+03
4.377635e+02,6.451975e+03
4.387278e+02,6.446187e+03
4.396920e+02,6.446493e+03
4.406563e+02,6.449349e+03
4.416205e+02,6.451511e+03
4.425847e+02,6.451831e+03
4.435490e+02,6.451650e+03
4.445132e+02,6.453928e+03
4.454774e+02,6.460312e+03
4.464417e+02,6.466026e+03
4.474059e+02,6.467227e+03
4.483701e+02,6.466013e+03
4.493344e+02,6.466526e+03
4.502986e+02,6.476330e+03
4.512628e+02,6.483911e+03
4.522271e+02,6.478287e+03
4.531913e+02,6.461922e+03
4.541555e+02,6.445744e+03
4.551198e+02,6.435837e+03
4.560840e+02,6.432570e+03
4.570482e+02,6.428125e+03
4.580125e+02,6.422958e+03
4.589767e+02,6.421678e+03
4.599409e+02,6.425155e+03
4.609052e+02,6.430758e+03
4.618694e+02,6.434806e+03
4.628336e+02,6.435617e+03
4.637979e+02,6.433699e+03
4.647621e+02,6.429654e+03
4.657263e+02,6.424002e+03
4.666906e+02,6.420078e+03
4.676548e+02,6.418575e+03
4.686190e+02,6.418862e+03
4.695833e+02,6.419029e+03
4.705475e+02,6.418694e+03
4.715117e+02,6.416908e+03
4.724760e+02,6.412365e+03
4.734402e+02,6.404845e+03
4.744044e+02,6.396466e+03
4.753687e+02,6.391386e+03
4.763329e+02,6.390709e+03
4.772971e+02,6.392274e+03
4.782614e+02,6.398502e+03
4.792256e+02,6.406261e+03
4.801898e+02,6.410908e+03
4.811541e+02,6.407705e+03
4.821183e+02,6.401089e+03
4.830825e+02,6.397537e+03
4.840468e+02,6.396675e+03
4.850110e+02,6.395572e+03
4.859752e+02,6.392556e+03
4.869395e+02,6.387053e+03
4.879037e+02,6.386765e+03
4.888679e+02,6.399389e+03
4.898322e+02,6.412035e+03
4.907964e+02,6.418120e+03
4.917606e+02,6.417905e+03
4.927249e+02,6.415021e+03
4.936891e+02,6.412393e+03
4.946533e+02,6.409913e+03
4.956176e+02,6.405554e+03
4.965818e+02,6.396996e+03
4.975460e+02,6.389357e+03
4.985103e+02,6.386879e+03
4.994745e+02,6.390113e+03
5.004387e+02,6.389931e+03
5.014030e+02,6.379325e+03
5.023672e+02,6.365452e+03
5.033314e+02,6.360557e+03
5.042957e+02,6.368699e+03
5.052599e+02,6.382742e+03
5.062241e+02,6.388943e+03
5.071884e+02,6.384474e+03
5.081526e+02,6.378697e+03
5.091168e+02,6.372593e+03
5.100811e+02,6.367742e+03
5.110453e+02,6.364596e+03
5.120095e+02,6.364227e+03
5.129738e+02,6.366289e+03
5.139380e+02,6.370245e+03
5.149022e+02,6.376298e+03
5.158665e+02,6.384165e+03
5.168307e+02,6.393403e+03
5.177949e+02,6.400516e+03
5.187592e+02,6.395032e+03
5.197234e+02,6.374516e+03
5.206876e+02,6.355173e+03
5.216519e+02,6.342705e+03
5.226161e+02,6.337292e+03
5.235803e+02,6.336417e+03
5.245446e+02,6.339903e+03
5.255088e+02,6.346808e+03
5.264730e+02,6.350947e+03
5.274373e+02,6.351796e+03
5.284015e+02,6.350377e+03
5.293657e+02,6.345461e+03
5.303300e+02,6.336945e+03
5.312942e+02,6.328733e+03
5.322584e+02,6.324330e+03
5.332227e+02,6.323497e+03
5.341869e+02,6.325053e+03
5.351511e+02,6.327486e+03
5.361154e+02,6.328674e+03
5.370796e+02,6.326374e+03
5.380438e+02,6.320179e+03
5.390081e+02,6.315929e+03
5.399723e+02,6.315268e+03
5.409365e+02,6.317624e+03
5.419008e+02,6.320844e+03
5.428650e+02,6.323167e+03
5.438292e+02,6.324810e+03
5.447935e+02,6.327726e+03
5.457577e+02,6.330362e+03
5.467219e+02,6.329290e+03
5.476862e+02,6.323060e+03
5.486504e+02,6.312804e+03
5.496146e+02,6.302103e+03
5.505789e+02,6.289173e+03
5.515431e+02,6.278061e+03
5.525073e+02,6.271370e+03
5.534716e+02,6.270529e+03
5.544358e+02,6.274405e+03
5.554000e+02,6.284148e+03
5.563643e+02,6.293577e+03
5.573285e+02,6.295189e+03
5.582927e+02,6.289321e+03
5.592570e+02,6.283133e+03
5.602212e+02,6.281682e+03
5.611854e+02,6.284435e+03
5.621497e+02,6.289080e+03
5.631139e+02,6.302496e+03
5.640781e+02,6.307968e+03
5.650424e+02,6.299550e+03
5.660066e+02,6.280462e+03
5.669708e+02,6.260677e+03
5.679351e+02,6.243542e+03
5.688993e+02,6.231127e+03
5.698635e+02,6.227981e+03
5.708278e+02,6.235415e+03
5.717920e+02,6.248135e+03
5.727562e+02,6.261026e+03
5.737205e+02,6.274691e+03
5.746847e+02,6.280502e+03
5.756489e+02,6.271523e+03
5.766132e+02,6.259485e+03
5.775774e+02,6.250586e+03
5.785416e+02,6.246053e+03
5.795059e+02,6.244502e+03
5.804701e+02,6.247617e+03
5.814343e+02,6.253198e+03
5.823986e+02,6.254632e+03
5.833628e+02,6.251200e+03
5.843270e+02,6.243571e+03
5.852913e+02,6.231563e+03
5.862555e+02,6.205611e+03
5.872197e+02,6.190200e+03
5.881840e+02,6.188360e+03
5.891482e+02,6.193519e+03
5.901124e+02,6.201583e+03
5.910767e+02,6.211818e+03
5.920409e+02,6.222366e+03
5.930051e+02,6.232920e+03
5.939694e+02,6.242095e+03
5.949336e+02,6.243466e+03
5.958978e+02,6.233347e+03
5.968621e+02,6.217168e+03
5.978263e+02,6.207912e+03
5.987905e+02,6.215704e+03
5.997548e+02,6.220594e+03
6.007190e+02,6.218534e+03
6.016832e+02,6.214928e+03
6.026475e+02,6.215275e+03
6.036117e+02,6.221963e+03
6.045759e+02,6.229294e+03
6.055402e+02,6.229976e+03
6.065044e+02,6.223798e+03
6.074686e+02,6.216468e+03
6.084329e+02,6.212059e+03
6.093971e+02,6.210041e+03
6.103613e+02,6.204736e+03
6.113256e+02,6.190570e+03
6.122898e+02,6.179756e+03
6.132540e+02,6.176773e+03
6.142183e+02,6.178038e+03
6.151825e+02,6.177855e+03
6.161467e+02,6.174734e+03
6.171110e+02,6.170883e+03
6.180752e+02,6.167695e+03
6.190394e+02,6.164493e+03
6.200037e+02,6.159855e+03
6.209679e+02,6.152017e+03
6.219321e+02,6.142160e+03
6.228964e+02,6.137400e+03
6.238606e+02,6.141177e+03
6.248248e+02,6.145602e+03
6.257891e+02,6.146716e+03
6.267533e+02,6.143828e+03
6.277175e+02,6.139600e+03
6.286818e+02,6.136787e+03
6.296460e+02,6.135625e+03
6.306102e+02,6.137114e+03
6.315745e+02,6.141024e+03
6.325387e+02,6.143128e+03
6.335029e+02,6.138094e+03
6.344672e+02,6.124574e+03
6.354314e+02,6.116133e+03
6.363956e+02,6.115920e+03
6.373599e+02,6.114218e+03
6.383241e+02,6.105917e+03
6.392883e+02,6.092823e+03
6.402526e+02,6.084470e+03
6.412168e+02,6.085563e+03
6.421810e+02,6.091166e+03
6.431453e+02,6.100163e+03
6.441095e+02,6.110821e+03
6.450737e+02,6.116388e+03
6.460380e+02,6.107444e+03
6.470022e+02,6.084694e+03
6.479664e+02,6.076807e+03
6.489307e+02,6.090591e+03
6.498949e+02,6.106386e+03
6.508591e+02,6.105609e+03
6.518234e+02,6.085720e+03
6.527876e+02,6.071781e+03
6.537518e+02,6.073533e+03
6.547161e+02,6.079168e+03
6.556803e+02,6.080859e+03
6.566445e+02,6.077849e+03
6.576088e+02,6.072425e+03
6.585730e+02,6.064275e+03
6.595372e+02,6.054489e+03
6.605015e+02,6.050895e+03
6.614657e+02,6.056153e+03
6.624299e+02,6.062651e+03
6.633942e+02,6.062525e+03
6.643584e+02,6.051130e+03
6.653226e+02,6.044029e+03
6.662869e+02,6.041167e+03
6.672511e+02,6.040677e+03
6.682153e+02,6.043099e+03
6.691796e+02,6.047487e+03
6.701438e+02,6.049307e+03
6.711080e+02,6.043943e+03
6.720723e+02,6.034259e+03
6.730365e+02,6.026643e+03
6.740007e+02,6.022868e+03
6.749650e+02,6.020842e+03
6.759292e+02,6.018497e+03
6.768934e+02,6.017363e+03
6.778577e+02,6.013985e+03
6.788219e+02,6.007563e+03
6.797861e+02,6.002893e+03
6.807504e+02,6.001162e+03
6.817146e+02,6.001330e+03
6.826788e+02,6.000569e+03
6.836431e+02,5.994553e+03
6.846073e+02,5.986280e+03
6.855715e+02,5.981755e+03
6.865358e+02,5.982895e+03
6.875000e+02,5.984891e+03
6.884642e+02,5.980171e+03
6.894285e+02,5.969079e+03
6.903927e+02,5.963796e+03
6.913569e+02,5.967572e+03
6.923212e+02,5.972747e+03
6.932854e+02,5.971595e+03
6.942496e+02,5.961858e+03
6.952139e+02,5.955490e+03
6.961781e+02,5.950414e+03
6.971423e+02,5.948765e+03
6.981066e+02,5.953109e+03
6.990708e+02,5.961646e+03
7.000350e+02,5.965184e+03
7.009993e+02,5.956419e+03
7.019635e+02,5.942201e+03
7.029277e+02,5.933983e+03
7.038920e+02,5.933365e+03
7.048562e+02,5.936027e+03
7.058204e+02,5.939823e+03
7.067847e+02,5.949979e+03
7.077489e+02,5.951305e+03
7.087131e+02,5.939196e+03
7.096774e+02,5.926837e+03
7.106416e+02,5.920521e+03
7.116058e+02,5.921032e+03
7.125701e+02,5.918225e+03
7.135343e+02,5.907016e+03
7.144985e+02,5.894897e+03
7.154628e+02,5.887593e+03
7.164270e+02,5.885370e+03
7.173912e+02,5.885023e+03
7.183555e+02,5.884135e+03
7.193197e+02,5.882487e+03
7.202839e+02,5.880063e+03
7.212482e+02,5.877554e+03
7.222124e+02,5.875868e+03
7.231766e+02,5.875187e+03
7.241409e+02,5.874700e+03
7.251051e+02,5.872627e+03
7.260693e+02,5.867312e+03
7.270336e+02,5.861126e+03
7.279978e+02,5.856666e+03
7.289620e+02,5.854000e+03
7.299263e+02,5.851397e+03
7.308905e+02,5.844128e+03
7.318547e+02,5.837574e+03
7.328190e+02,5.842065e+03
7.337832e+02,5.857213e+03
7.347474e+02,5.869208e+03
7.357117e+02,5.863354e+03
7.366759e+02,5.842398e+03
7.376401e+02,5.824683e+03
7.386044e+02,5.811119e+03
7.395686e+02,5.801197e+03
7.405328e+02,5.793204e+03
7.414971e+02,5.786056e+03
7.424613e+02,5.783913e+03
7.434255e+02,5.796603e+03
7.443898e+02,5.811135e+03
7.453540e+02,5.818390e+03
7.463182e+02,5.815683e+03
7.472825e+02,5.809850e+03
7.482467e+02,5.804534e+03
7.492109e+02,5.798334e+03
7.501752e+02,5.791694e+03
7.511394e+02,5.786783e+03
7.521036e+02,5.783695e+03
7.530679e+02,5.779753e+03
7.540321e+02,5.773989e+03
7.549963e+02,5.770752e+03
7.559606e+02,5.771913e+03
7.569248e+02,5.773871e+03
7.578890e+02,5.774186e+03
7.588533e+02,5.773284e+03
7.598175e+02,5.775741e+03
7.607817e+02,5.780294e+03
7.617460e+02,5.779940e+03
7.627102e+02,5.773740e+03
7.636744e+02,5.764849e+03
7.646387e+02,5.756319e+03
7.656029e+02,5.744940e+03
7.665671e+02,5.737213e+03
7.675314e+02,5.738566e+03
7.684956e+02,5.743545e+03
7.694598e+02,5.744309e+03
7.704241e+02,5.739318e+03
7.713883e+02,5.731685e+03
7.723525e+02,5.722834e+03
7.733168e+02,5.713183e+03
7.742810e+02,5.711980e+03
7.752452e+02,5.723273e+03
7.762095e+02,5.741830e+03
7.771737e+02,5.748964e+03
7.781379e+02,5.731439e+03
7.791022e+02,5.714295e+03
7.800664e+02,5.706154e+03
7.810306e+02,5.703722e+03
7.819949e+02,5.700831e+03
7.829591e+02,5.698132e+03
7.839233e+02,5.696390e+03
7.848876e+02,5.694674e+03
7.858518e+02,5.692505e+03
7.868160e+02,5.690289e+03
7.877803e+02,5.688578e+03
7.887445e+02,5.685495e+03
7.897087e+02,5.677643e+03
7.906730e+02,5.668107e+03
7.916372e+02,5.666279e+03
7.926014e+02,5.673666e+03
7.935657e+02,5.681157e+03
7.945299e+02,5.676339e+03
7.954941e+02,5.655182e+03
7.964584e+02,5.638472e+03
7.974226e+02,5.636902e+03
7.983868e+02,5.645050e+03
7.993511e+02,5.649515e+03
8.003153e+02,5.643217e+03
8.012795e+02,5.635906e+03
8.022438e+02,5.629336e+03
8.032080e+02,5.626913e+03
8.041722e+02,5.633530e+03
8.051365e+02,5.649853e+03
8.061007e+02,5.662671e+03
8.070649e+02,5.658668e+03
8.080292e+02,5.643634e+03
8.089934e+02,5.629171e+03
8.099576e+02,5.618720e+03
8.109219e+02,5.611275e+03
8.118861e+02,5.604656e+03
8.128503e+02,5.598889e+03
8.138146e+02,5.595937e+03
8.147788e+02,5.595554e+03
8.157430e+02,5.595778e+03
8.167073e+02,5.597436e+03
8.176715e+02,5.604979e+03
8.186357e+02,5.605838e+03
8.196000e+02,5.588310e+03
8.205642e+02,5.574217e+03
8.215284e+02,5.572964e+03
8.224927e+02,5.582424e+03
8.234569e+02,5.587326e+03
8.244211e+02,5.578275e+03
8.253854e+02,5.568845e+03
8.263496e+02,5.568693e+03
8.273138e+02,5.573176e+03
8.282781e+02,5.572260e+03
8.292423e+02,5.557071e+03
8.302065e+02,5.539922e+03
8.311708e+02,5.538899e+03
8.321350e+02,5.551088e+03
8.330992e+02,5.561617e+03
8.340635e+02,5.561398e+03
8.350277e+02,5.553548e+03
8.359919e+02,5.549056e+03
8.369562e+02,5.548577e+03
8.379204e+02,5.548964e+03
8.388846e+02,5.548783e+03
8.398489e+02,5.549310e+03
8.408131e+02,5.553223e+03
8.417773e+02,5.568885e+03
8.427416e+02,5.573954e+03
8.437058e+02,5.559529e+03
8.446700e+02,5.537467e+03
8.456343e+02,5.520291e+03
8.465985e+02,5.509301e+03
8.475627e+02,5.502547e+03
8.485270e+02,5.502748e+03
8.494912e+02,5.504903e+03
8.504554e+02,5.503884e+03
8.514197e+02,5.499015e+03
8.523839e+02,5.495959e+03
8.533481e+02,5.502143e+03
8.543124e+02,5.510856e+03
8.552766e+02,5.508393e+03
8.562408e+02,5.492861e+03
8.572051e+02,5.475307e+03
8.581693e+02,5.469714e+03
8.591335e+02,5.475569e+03
8.600978e+02,5.477342e+03
8.610620e+02,5.474878e+03
8.620262e+02,5.471637e+03
8.629905e+02,5.468095e+03
8.639547e+02,5.462126e+03
8.649189e+02,5.458007e+03
8.658832e+02,5.461586e+03
8.668474e+02,5.464497e+03
8.678116e+02,5.461146e+03
8.687759e+02,5.452471e+03
8.697401e+02,5.447218e+03
8.707043e+02,5.444697e+03
8.716686e+02,5.441078e+03
8.726328e+02,5.439762e+03
8.735970e+02,5.439811e+03
8.745613e+02,5.437314e+03
8.755255e+02,5.429686e+03
8.764897e+02,5.423882e+03
8.774540e+02,5.425613e+03
8.784182e+02,5.430036e+03
8.793824e+02,5.428348e+03
8.803467e+02,5.415903e+03
8.813109e+02,5.401835e+03
8.822751e+02,5.400337e+03
8.832394e+02,5.408886e+03
8.842036e+02,5.413834e+03
8.851678e+02,5.410214e+03
8.861321e+02,5.403061e+03
8.870963e+02,5.401389e+03
8.880605e+02,5.405283e+03
8.890248e+02,5.404606e+03
8.899890e+02,5.400450e+03
8.909532e+02,5.393750e+03
8.919175e+02,5.383175e+03
8.928817e+02,5.366600e+03
8.938459e+02,5.355058e+03
8.948102e+02,5.347063e+03
8.957744e+02,5.343025e+03
8.967386e+02,5.345975e+03
8.977029e+02,5.354330e+03
8.986671e+02,5.359039e+03
8.996313e+02,5.364139e+03
9.005956e+02,5.366669e+03
9.015598e+02,5.361392e+03
9.025240e+02,5.350745e+03
9.034883e+02,5.342960e+03
9.044525e+02,5.343703e+03
9.054167e+02,5.343016e+03
9.063810e+02,5.337157e+03
9.073452e+02,5.331083e+03
9.083094e+02,5.329382e+03
9.092737e+02,5.333557e+03
9.102379e+02,5.336712e+03
9.112021e+02,5.329484e+03
9.121664e+02,5.315664e+03
9.131306e+02,5.306945e+03
9.140948e+02,5.308750e+03
9.150591e+02,5.315557e+03
9.160233e+02,5.316276e+03
9.169875e+02,5.308695e+03
9.179518e+02,5.296427e+03
9.189160e+02,5.279151e+03
9.198802e+02,5.263620e+03
9.208445e+02,5.260382e+03
9.218087e+02,5.273386e+03
9.227729e+02,5.280131e+03
9.237372e+02,5.277243e+03
9.247014e+02,5.271428e+03
9.256656e+02,5.266602e+03
9.266299e+02,5.262358e+03
9.275941e+02,5.260216e+03
9.285583e+02,5.264079e+03
9.295226e+02,5.263001e+03
9.304868e+02,5.248412e+03
9.314510e+02,5.226676e+03
9.324153e+02,5.215867e+03
9.333795e+02,5.228197e+03
9.343438e+02,5.238756e+03
9.353080e+02,5.240618e+03
9.362722e+02,5.234021e+03
9.372365e+02,5.221085e+03
9.382007e+02,5.199023e+03
9.391649e+02,5.184288e+03
9.401292e+02,5.188587e+03
9.410934e+02,5.201398e+03
9.420576e+02,5.209453e+03
9.430219e+02,5.208726e+03
9.439861e+02,5.206259e+03
9.449503e+02,5.212460e+03
9.459146e+02,5.222208e+03
9.468788e+02,5.223568e+03
9.478430e+02,5.212878e+03
9.488073e+02,5.196854e+03
9.497715e+02,5.181571e+03
9.507357e+02,5.168991e+03
9.517000e+02,5.163423e+03
9.526642e+02,5.165911e+03
9.536284e+02,5.170439e+03
9.545927e+02,5.172900e+03
9.555569e+02,5.172953e+03
9.565211e+02,5.168809e+03
9.574854e+02,5.162073e+03
9.584496e+02,5.158427e+03
9.594138e+02,5.157677e+03
9.603781e+02,5.158616e+03
9.613423e+02,5.163834e+03
9.623065e+02,5.176181e+03
9.632708e+02,5.180065e+03
9.642350e+02,5.171265e+03
9.651992e+02,5.157559e+03
9.661635e+02,5.147878e+03
9.671277e+02,5.142836e+03
9.680919e+02,5.135502e+03
9.690562e+02,5.121827e+03
9.700204e+02,5.109358e+03
9.709846e+02,5.106884e+03
9.719489e+02,5.119110e+03
9.729131e+02,5.125137e+03
9.738773e+02,5.121653e+03
9.748416e+02,5.118022e+03
9.758058e+02,5.115199e+03
9.767700e+02,5.112067e+03
9.777343e+02,5.110331e+03
9.786985e+02,5.116118e+03
9.796627e+02,5.115601e+03
9.806270e+02,5.099221e+03
9.815912e+02,5.075231e+03
9.825554e+02,5.057824e+03
9.835197e+02,5.056624e+03
9.844839e+02,5.058795e+03
9.854481e+02,5.061467e+03
9.864124e+02,5.064424e+03
9.873766e+02,5.065858e+03
9.883408e+02,5.065646e+03
9.893051e+02,5.065400e+03
9.902693e+02,5.064406e+03
9.912335e+02,5.065322e+03
9.921978e+02,5.071094e+03
9.931620e+02,5.079674e+03
9.941262e+02,5.084516e+03
9.950905e+02,5.080741e+03
9.960547e+02,5.072128e+03
9.970189e+02,5.061930e+03
9.979832e+02,5.050211e+03
9.989474e+02,5.038126e+03
9.999116e+02,5.027568e+03
1.000876e+03,5.019630e+03
1.001840e+03,5.015276e+03
1.002804e+03,5.015293e+03
1.003769e+03,5.019281e+03
1.004733e+03,5.026371e+03
1.005697e+03,5.032192e+03
1.006661e+03,5.029825e+03
1.007625e+03,5.021450e+03
1.008590e+03,5.014956e+03
1.009554e+03,5.010622e+03
1.010518e+03,5.006866e+03
1.011482e+03,5.005196e+03
1.012447e+03,5.004583e+03
1.013411e+03,4.996362e+03
1.014375e+03,4.982135e+03
1.015339e+03,4.968516e+03
1.016304e+03,4.957115e+03
1.017268e+03,4.948432e+03
1.018232e+03,4.950715e+03
1.019196e+03,4.965087e+03
1.020161e+03,4.976253e+03
1.021125e+03,4.979029e+03
1.022089e+03,4.976760e+03
1.023053e+03,4.973499e+03
1.024017e+03,4.966605e+03
1.024982e+03,4.962893e+03
1.025946e+03,4.964053e+03
1.026910e+03,4.964542e+03
1.027874e+03,4.959816e+03
1.028839e+03,4.951015e+03
1.029803e+03,4.942420e+03
1.030767e+03,4.932106e+03
1.031731e+03,4.926229e+03
1.032696e+03,4.929446e+03
1.033660e+03,4.941787e+03
1.034624e+03,4.950134e+03
1.035588e+03,4.955266e+03
1.036552e+03,4.958528e+03
1.037517e+03,4.958810e+03
1.038481e+03,4.955271e+03
1.039445e+03,4.950112e+03
1.040409e+03,4.943833e+03
1.041374e+03,4.935362e+03
1.042338e+03,4.922376e+03
1.043302e+03,4.910588e+03
1.044266e+03,4.906752e+03
1.045231e+03,4.919755e+03
1.046195e+03,4.923162e+03
1.047159e+03,4.910666e+03
1.048123e+03,4.895975e+03
1.049088e+03,4.887106e+03
1.050052e+03,4.885674e+03
1.051016e+03,4.889917e+03
1.051980e+03,4.908048e+03
1.052944e+03,4.922183e+03
1.053909e+03,4.920554e+03
1.054873e+03,4.905394e+03
1.055837e+03,4.893929e+03
1.056801e+03,4.894446e+03
1.057766e+03,4.893132e+03
1.058730e+03,4.887909e+03
1.059694e+03,4.880414e+03
1.060658e+03,4.871503e+03
1.061623e+03,4.860130e+03
1.062587e+03,4.852114e+03
1.063551e+03,4.848708e+03
1.064515e+03,4.848911e+03
1.065479e+03,4.852739e+03
1.066444e+03,4.861542e+03
1.067408e+03,4.866742e+03
1.068372e+03,4.865679e+03
1.069336e+03,4.862064e+03
1.070301e+03,4.850608e+03
1.071265e+03,4.834664e+03
1.072229e+03,4.828269e+03
1.073193e+03,4.846534e+03
1.074158e+03,4.859101e+03
1.075122e+03,4.855106e+03
1.076086e+03,4.842681e+03
1.077050e+03,4.831910e+03
1.078015e+03,4.825115e+03
1.078979e+03,4.825923e+03
1.079943e+03,4.842585e+03
1.080907e+03,4.859647e+03
1.081871e+03,4.862597e+03
1.082836e+03,4.849007e+03
1.083800e+03,4.839640e+03
1.084764e+03,4.843921e+03
1.085728e+03,4.850756e+03
1.086693e+03,4.855536e+03
1.087657e+03,4.857879e+03
1.088621e+03,4.858758e+03
1.089585e+03,4.859050e+03
1.090550e+03,4.854762e+03
1.091514e+03,4.846394e+03
1.092478e+03,4.836089e+03
1.093442e+03,4.824345e+03
1.094406e+03,4.809653e+03
1.095371e+03,4.799887e+03
1.096335e+03,4.798176e+03
1.097299e+03,4.798630e+03
1.098263e+03,4.797864e+03
1.099228e+03,4.795188e+03
1.100192e+03,4.792460e+03
1.101156e+03,4.788667e+03
1.102120e+03,4.785433e+03
1.103085e+03,4.784662e+03
1.104049e+03,4.785243e+03
1.105013e+03,4.784832e+03
1.105977e+03,4.785927e+03
1.106942e+03,4.783179e+03
1.107906e+03,4.772492e+03
1.108870e+03,4.760213e+03
1.109834e+03,4.751539e+03
1.110798e+03,4.747017e+03
1.111763e+03,4.745803e+03
1.112727e+03,4.753246e+03
1.113691e+03,4.760290e+03
1.114655e+03,4.759478e+03
1.115620e+03,4.752324e+03
1.116584e+03,4.750961e+03
1.117548e+03,4.763760e+03
1.118512e+03,4.769363e+03
1.119477e+03,4.757007e+03
1.120441e+03,4.737196e+03
1.121405e+03,4.726586e+03
1.122369e+03,4.736444e+03
1.123333e+03,4.738963e+03
1.124298e+03,4.729385e+03
1.125262e+03,4.718254e+03
1.126226e+03,4.713626e+03
1.127190e+03,4.716916e+03
1.128155e+03,4.717065e+03
1.129119e+03,4.708963e+03
1.130083e+03,4.702353e+03
1.131047e+03,4.700198e+03
1.132012e+03,4.700936e+03
1.132976e+03,4.703635e+03
1.133940e+03,4.712981e+03
1.134904e+03,4.713974e+03
1.135869e+03,4.702849e+03
1.136833e+03,4.687209e+03
1.137797e+03,4.675356e+03
1.138761e+03,4.670194e+03
1.139725e+03,4.662759e+03
1.140690e+03,4.648623e+03
1.141654e+03,4.639787e+03
1.142618e+03,4.645191e+03
1.143582e+03,4.662530e+03
1.144547e+03,4.670144e+03
1.145511e+03,4.664949e+03
1.146475e+03,4.661288e+03
1.147439e+03,4.663541e+03
1.148404e+03,4.669201e+03
1.149368e+03,4.672000e+03
1.150332e+03,4.670971e+03
1.151296e+03,4.671761e+03
1.152260e+03,4.673507e+03
1.153225e+03,4.670894e+03
1.154189e+03,4.662275e+03
1.155153e+03,4.649988e+03
1.156117e+03,4.636216e+03
1.157082e+03,4.622306e+03
1.158046e+03,4.614685e+03
1.159010e+03,4.615632e+03
1.159974e+03,4.620739e+03
1.160939e+03,4.619532e+03
1.161903e+03,4.612635e+03
1.162867e+03,4.612321e+03
1.163831e+03,4.621218e+03
1.164796e+03,4.629218e+03
1.165760e+03,4.625304e+03
1.166724e+03,4.614116e+03
1.167688e+03,4.605939e+03
1.168652e+03,4.601003e+03
1.169617e+03,4.596488e+03
1.170581e+03,4.591795e+03
1.171545e+03,4.586658e+03
1.172509e+03,4.577554e+03
1.173474e+03,4.568011e+03
1.174438e+03,4.566458e+03
1.175402e+03,4.575740e+03
1.176366e+03,4.584631e+03
1.177331e+03,4.582663e+03
1.178295e+03,4.575913e+03
1.179259e+03,4.570052e+03
1.180223e+03,4.565048e+03
1.181188e+03,4.560916e+03
1.182152e+03,4.559017e+03
1.183116e+03,4.557218e+03
1.184080e+03,4.555465e+03
1.185044e+03,4.554240e+03
1.186009e+03,4.553237e+03
1.186973e+03,4.554406e+03
1.187937e+03,4.554640e+03
1.188901e+03,4.549057e+03
1.189866e+03,4.543416e+03
1.190830e+03,4.543174e+03
1.191794e+03,4.548067e+03
1.192758e+03,4.548207e+03
1.193723e+03,4.535559e+03
1.194687e+03,4.528037e+03
1.195651e+03,4.536517e+03
1.196615e+03,4.553807e+03
1.197579e+03,4.561753e+03
1.198544e+03,4.547873e+03
1.199508e+03,4.537211e+03
1.200472e+03,4.538733e+03
1.201436e+03,4.540864e+03
1.202401e+03,4.533267e+03
1.203365e+03,4.515122e+03
1.204329e+03,4.503192e+03
1.205293e+03,4.497106e+03
1.206258e+03,4.497002e+03
1.207222e+03,4.504406e+03
1.208186e+03,4.515337e+03
1.209150e+03,4.518087e+03
1.210115e+03,4.510368e+03
1.211079e+03,4.503838e+03
1.212043e+03,4.501182e+03
1.213007e+03,4.499785e+03
1.213971e+03,4.499964e+03
1.214936e+03,4.501685e+03
1.215900e+03,4.495000e+03
1.216864e+03,4.480540e+03
1.217828e+03,4.468443e+03
1.218793e+03,4.465004e+03
1.219757e+03,4.466972e+03
1.220721e+03,4.469372e+03
1.221685e+03,4.472833e+03
1.222650e+03,4.477986e+03
1.223614e+03,4.483757e+03
1.224578e+03,4.485982e+03
1.225542e+03,4.480046e+03
1.226506e+03,4.472325e+03
1.227471e+03,4.469819e+03
1.228435e+03,4.470742e+03
1.229399e+03,4.469585e+03
1.230363e+03,4.466700e+03
1.231328e+03,4.460138e+03
1.232292e+03,4.446755e+03
1.233256e+03,4.433405e+03
1.234220e+03,4.426993e+03
1.235185e+03,4.432390e+03
1.236149e+03,4.436734e+03
1.237113e+03,4.435802e+03
1.238077e+03,4.435640e+03
1.239042e+03,4.436813e+03
1.240006e+03,4.437501e+03
1.240970e+03,4.438433e+03
1.241934e+03,4.441045e+03
1.242898e+03,4.441004e+03
1.243863e+03,4.438557e+03
1.244827e+03,4.434232e+03
1.245791e+03,4.427814e+03
1.246755e+03,4.418901e+03
1.247720e+03,4.409773e+03
1.248684e+03,4.400451e+03
1.249648e+03,4.393817e+03
1.250612e+03,4.391194e+03
1.251577e+03,4.391493e+03
1.252541e+03,4.394451e+03
1.253505e+03,4.399033e+03
1.254469e+03,4.400195e+03
1.255433e+03,4.396903e+03
1.256398e+03,4.394251e+03
1.257362e+03,4.398386e+03
1.258326e+03,4.404741e+03
1.259290e+03,4.407716e+03
1.260255e+03,4.405866e+03
1.261219e+03,4.397953e+03
1.262183e+03,4.376780e+03
1.263147e+03,4.360708e+03
1.264112e+03,4.369075e+03
1.265076e+03,4.388560e+03
1.266040e+03,4.398460e+03
1.267004e+03,4.391540e+03
1.267969e+03,4.384104e+03
1.268933e+03,4.382683e+03
1.269897e+03,4.384691e+03
1.270861e+03,4.385369e+03
1.271825e+03,4.381756e+03
1.272790e+03,4.378776e+03
1.273754e+03,4.381474e+03
1.274718e+03,4.378437e+03
1.275682e+03,4.365100e+03
1.276647e+03,4.352116e+03
1.277611e+03,4.354583e+03
1.278575e+03,4.375841e+03
1.279539e+03,4.378747e+03
1.280504e+03,4.362771e+03
1.281468e+03,4.347551e+03
1.282432e+03,4.343804e+03
1.283396e+03,4.346721e+03
1.284360e+03,4.343060e+03
1.285325e+03,4.334275e+03
1.286289e+03,4.331138e+03
1.287253e+03,4.336272e+03
1.288217e+03,4.342819e+03
1.289182e+03,4.346326e+03
1.290146e+03,4.347685e+03
1.291110e+03,4.349443e+03
1.292074e+03,4.350973e+03
1.293039e+03,4.347971e+03
1.294003e+03,4.331748e+03
1.294967e+03,4.316878e+03
1.295931e+03,4.312583e+03
1.296896e+03,4.313496e+03
1.297860e+03,4.313284e+03
1.298824e+03,4.310399e+03
1.299788e+03,4.306083e+03
1.300752e+03,4.294469e+03
1.301717e+03,4.289104e+03
1.302681e+03,4.298963e+03
1.303645e+03,4.317218e+03
1.304609e+03,4.323878e+03
1.305574e+03,4.315643e+03
1.306538e+03,4.305960e+03
1.307502e+03,4.298576e+03
1.308466e+03,4.292669e+03
1.309431e+03,4.284594e+03
1.310395e+03,4.276373e+03
1.311359e+03,4.276110e+03
1.312323e+03,4.280425e+03
1.313287e+03,4.281243e+03
1.314252e+03,4.276216e+03
1.315216e+03,4.271635e+03
1.316180e+03,4.270272e+03
1.317144e+03,4.272846e+03
1.318109e+03,4.281836e+03
1.319073e+03,4.295131e+03
1.320037e+03,4.300667e+03
1.321001e+03,4.290075e+03
1.321966e+03,4.275697e+03
1.322930e+03,4.259631e+03
1.323894e+03,4.246944e+03
1.324858e+03,4.243875e+03
1.325823e+03,4.256990e+03
1.326787e+03,4.263806e+03
1.327751e+03,4.261098e+03
1.328715e+03,4.255068e+03
1.329679e+03,4.249239e+03
1.330644e+03,4.244668e+03
1.331608e+03,4.246167e+03
1.332572e+03,4.252850e+03
1.333536e+03,4.258875e+03
1.334501e+03,4.262167e+03
1.335465e+03,4.261802e+03
1.336429e+03,4.256213e+03
1.337393e+03,4.249712e+03
1.338358e+03,4.250957e+03
1.339322e+03,4.257217e+03
1.340286e+03,4.255901e+03
1.341250e+03,4.229874e+03
1.342214e+03,4.207843e+03
1.343179e+03,4.208295e+03
1.344143e+03,4.219907e+03
1.345107e+03,4.228435e+03
1.346071e+03,4.230956e+03
1.347036e+03,4.230870e+03
1.348000e+03,4.227415e+03
1.348964e+03,4.219408e+03
1.349928e+03,4.204780e+03
1.350893e+03,4.190407e+03
1.351857e+03,4.192394e+03
1.352821e+03,4.208957e+03
1.353785e+03,4.217060e+03
1.354750e+03,4.213244e+03
1.355714e+03,4.203867e+03
1.356678e+03,4.191882e+03
1.357642e+03,4.183101e+03
1.358606e+03,4.186870e+03
1.359571e+03,4.197629e+03
1.360535e+03,4.204307e+03
1.361499e+03,4.203502e+03
1.362463e+03,4.200315e+03
1.363428e+03,4.195127e+03
1.364392e+03,4.191454e+03
1.365356e+03,4.190398e+03
1.366320e+03,4.189780e+03
1.367285e+03,4.186732e+03
1.368249e+03,4.182397e+03
1.369213e+03,4.177062e+03
1.370177e+03,4.169732e+03
1.371141e+03,4.163782e+03
1.372106e+03,4.166125e+03
1.373070e+03,4.174631e+03
1.374034e+03,4.170618e+03
1.374998e+03,4.156548e+03
1.375963e+03,4.147448e+03
1.376927e+03,4.152512e+03
1.377891e+03,4.160789e+03
1.378855e+03,4.161928e+03
1.379820e+03,4.157569e+03
1.380784e+03,4.147811e+03
1.381748e+03,4.134139e+03
1.382712e+03,4.126981e+03
1.383677e+03,4.132927e+03
1.384641e+03,4.137484e+03
1.385605e+03,4.134357e+03
1.386569e+03,4.127360e+03
1.387533e+03,4.123051e+03
1.388498e+03,4.122424e+03
1.389462e+03,4.121683e+03
1.390426e+03,4.119662e+03
1.391390e+03,4.116359e+03
1.392355e+03,4.112436e+03
1.393319e+03,4.109537e+03
1.394283e+03,4.110827e+03
1.395247e+03,4.113487e+03
1.396212e+03,4.110222e+03
1.397176e+03,4.098998e+03
1.398140e+03,4.093175e+03
1.399104e+03,4.107104e+03
1.400068e+03,4.120902e+03
1.401033e+03,4.121475e+03
1.401997e+03,4.112358e+03
1.402961e+03,4.104741e+03
1.403925e+03,4.098981e+03
1.404890e+03,4.094491e+03
1.405854e+03,4.092968e+03
1.406818e+03,4.090744e+03
1.407782e+03,4.084460e+03
1.408747e+03,4.076820e+03
1.409711e+03,4.073766e+03
1.410675e+03,4.072466e+03
1.411639e+03,4.069985e+03
1.412604e+03,4.065953e+03
1.413568e+03,4.062701e+03
1.414532e+03,4.064718e+03
1.415496e+03,4.068724e+03
1.416460e+03,4.070564e+03
1.417425e+03,4.069139e+03
1.418389e+03,4.065847e+03
1.419353e+03,4.061302e+03
1.420317e+03,4.054416e+03
1.421282e+03,4.044731e+03
1.422246e+03,4.037018e+03
1.423210e+03,4.034540e+03
1.424174e+03,4.037429e+03
1.425139e+03,4.044449e+03
1.426103e+03,4.053656e+03
1.427067e+03,4.057476e+03
1.428031e+03,4.053069e+03
1.428995e+03,4.047071e+03
1.429960e+03,4.045265e+03
1.430924e+03,4.044013e+03
1.431888e+03,4.039747e+03
1.432852e+03,4.032910e+03
1.433817e+03,4.025922e+03
1.434781e+03,4.016880e+03
1.435745e+03,4.013785e+03
1.436709e+03,4.019055e+03
1.437674e+03,4.024319e+03
1.438638e+03,4.022778e+03
1.439602e+03,4.016645e+03
1.440566e+03,4.018413e+03
1.441531e+03,4.026561e+03
1.442495e+03,4.029498e+03
1.443459e+03,4.021386e+03
1.444423e+03,4.011281e+03
1.445387e+03,4.007792e+03
1.446352e+03,4.005860e+03
1.447316e+03,4.001497e+03
1.448280e+03,3.996289e+03
1.449244e+03,3.992486e+03
1.450209e+03,3.989009e+03
1.451173e+03,3.989612e+03
1.452137e+03,3.995056e+03
1.453101e+03,3.999062e+03
1.454066e+03,3.996073e+03
1.455030e+03,3.987595e+03
1.455994e+03,3.984722e+03
1.456958e+03,3.986613e+03
1.457922e+03,3.988197e+03
1.458887e+03,3.986487e+03
1.459851e+03,3.983329e+03
1.460815e+03,3.977140e+03
1.461779e+03,3.971712e+03
1.462744e+03,3.976089e+03
1.463708e+03,3.988850e+03
1.464672e+03,3.992286e+03
1.465636e+03,3.981153e+03
1.466601e+03,3.972939e+03
1.467565e+03,3.970349e+03
1.468529e+03,3.969188e+03
1.469493e+03,3.963730e+03
1.470458e+03,3.954683e+03
1.471422e+03,3.949415e+03
1.472386e+03,3.947770e+03
1.473350e+03,3.946336e+03
1.474314e+03,3.942859e+03
1.475279e+03,3.939544e+03
1.476243e+03,3.936657e+03
1.477207e+03,3.934195e+03
1.478171e+03,3.934465e+03
1.479136e+03,3.937093e+03
1.480100e+03,3.938816e+03
1.481064e+03,3.940634e+03
1.482028e+03,3.938478e+03
1.482993e+03,3.931598e+03
1.483957e+03,3.925953e+03
1.484921e+03,3.927331e+03
1.485885e+03,3.931919e+03
1.486849e+03,3.932086e+03
1.487814e+03,3.928411e+03
1.488778e+03,3.925448e+03
1.489742e+03,3.926972e+03
1.490706e+03,3.921962e+03
1.491671e+03,3.898129e+03
1.492635e+03,3.881832e+03
1.493599e+03,3.886195e+03
1.494563e+03,3.901873e+03
1.495528e+03,3.906152e+03
1.496492e+03,3.898829e+03
1.497456e+03,3.892894e+03
1.498420e+03,3.891095e+03
1.499385e+03,3.890292e+03
1.500349e+03,3.887209e+03
1.501313e+03,3.885049e+03
1.502277e+03,3.886617e+03
1.503241e+03,3.889725e+03
1.504206e+03,3.890853e+03
1.505170e+03,3.887164e+03
1.506134e+03,3.888935e+03
1.507098e+03,3.901125e+03
1.508063e+03,3.905385e+03
1.509027e+03,3.892608e+03
1.509991e+03,3.873454e+03
1.510955e+03,3.868520e+03
1.511920e+03,3.870811e+03
1.512884e+03,3.862106e+03
1.513848e+03,3.844794e+03
1.514812e+03,3.835484e+03
1.515776e+03,3.847377e+03
1.516741e+03,3.856424e+03
1.517705e+03,3.849997e+03
1.518669e+03,3.840450e+03
1.519633e+03,3.839182e+03
1.520598e+03,3.844984e+03
1.521562e+03,3.846861e+03
1.522526e+03,3.843921e+03
1.523490e+03,3.838677e+03
1.524455e+03,3.831824e+03
1.525419e+03,3.826899e+03
1.526383e+03,3.831430e+03
1.527347e+03,3.836397e+03
1.528312e+03,3.834145e+03
1.529276e+03,3.827589e+03
1.530240e+03,3.824570e+03
1.531204e+03,3.826062e+03
1.532168e+03,3.824310e+03
1.533133e+03,3.818047e+03
1.534097e+03,3.812019e+03
1.535061e+03,3.809826e+03
1.536025e+03,3.809193e+03
1.536990e+03,3.807211e+03
1.537954e+03,3.805033e+03
1.538918e+03,3.804807e+03
1.539882e+03,3.807160e+03
1.540847e+03,3.807188e+03
1.541811e+03,3.799847e+03
1.542775e+03,3.792612e+03
1.543739e+03,3.789737e+03
1.544703e+03,3.788552e+03
1.545668e+03,3.781414e+03
1.546632e+03,3.771450e+03
1.547596e+03,3.773289e+03
1.548560e+03,3.785756e+03
1.549525e+03,3.797398e+03
1.550489e+03,3.802797e+03
1.551453e+03,3.802263e+03
1.552417e+03,3.789899e+03
1.553382e+03,3.776482e+03
1.554346e+03,3.772104e+03
1.555310e+03,3.776384e+03
1.556274e+03,3.781177e+03
1.557239e+03,3.786004e+03
1.558203e+03,3.785004e+03
1.559167e+03,3.776489e+03
1.560131e+03,3.767698e+03
1.561095e+03,3.766446e+03
1.562060e+03,3.767222e+03
1.563024e+03,3.764841e+03
1.563988e+03,3.760799e+03
1.564952e+03,3.758760e+03
1.565917e+03,3.759360e+03
1.566881e+03,3.759439e+03
1.567845e+03,3.758087e+03
1.568809e+03,3.755956e+03
1.569774e+03,3.753875e+03
1.570738e+03,3.751629e+03
1.571702e+03,3.747563e+03
1.572666e+03,3.743550e+03
1.573630e+03,3.743654e+03
1.574595e+03,3.749226e+03
1.575559e+03,3.750767e+03
1.576523e+03,3.746681e+03
1.577487e+03,3.741812e+03
1.578452e+03,3.734286e+03
1.579416e+03,3.727129e+03
1.580380e+03,3.726976e+03
1.581344e+03,3.729366e+03
1.582309e+03,3.726567e+03
1.583273e+03,3.719644e+03
1.584237e+03,3.709598e+03
1.585201e+03,3.693455e+03
1.586166e+03,3.683700e+03
1.587130e+03,3.681248e+03
1.588094e+03,3.683337e+03
1.589058e+03,3.691559e+03
1.590022e+03,3.701794e+03
1.590987e+03,3.703903e+03
1.591951e+03,3.701900e+03
1.592915e+03,3.702142e+03
1.593879e+03,3.703346e+03
1.594844e+03,3.702863e+03
1.595808e+03,3.701031e+03
1.596772e+03,3.696055e+03
1.597736e+03,3.686042e+03
1.598701e+03,3.678525e+03
1.599665e+03,3.682369e+03
1.600629e+03,3.692634e+03
1.601593e+03,3.685520e+03
1.602557e+03,3.667073e+03
1.603522e+03,3.656946e+03
1.604486e+03,3.662156e+03
1.605450e+03,3.665807e+03
1.606414e+03,3.659884e+03
1.607379e+03,3.655101e+03
1.608343e+03,3.655373e+03
1.609307e+03,3.657551e+03
1.610271e+03,3.655749e+03
1.611236e+03,3.650891e+03
1.612200e+03,3.650003e+03
1.613164e+03,3.653814e+03
1.614128e+03,3.658314e+03
1.615093e+03,3.660380e+03
1.616057e+03,3.662430e+03
1.617021e+03,3.667363e+03
1.617985e+03,3.667638e+03
1.618949e+03,3.657844e+03
1.619914e+03,3.641598e+03
1.620878e+03,3.632017e+03
1.621842e+03,3.628571e+03
1.622806e+03,3.628484e+03
1.623771e+03,3.631873e+03
1.624735e+03,3.634281e+03
1.625699e+03,3.631737e+03
1.626663e+03,3.626262e+03
1.627628e+03,3.615832e+03
1.628592e+03,3.603719e+03
1.629556e+03,3.596926e+03
1.630520e+03,3.596357e+03
1.631484e+03,3.596822e+03
1.632449e+03,3.598024e+03
1.633413e+03,3.601426e+03
1.634377e+03,3.611950e+03
1.635341e+03,3.614469e+03
1.636306e+03,3.593729e+03
1.637270e+03,3.575042e+03
1.638234e+03,3.569666e+03
1.639198e+03,3.573674e+03
1.640163e+03,3.578351e+03
1.641127e+03,3.583387e+03
1.642091e+03,3.583173e+03
1.643055e+03,3.576906e+03
1.644020e+03,3.573246e+03
1.644984e+03,3.582632e+03
1.645948e+03,3.582944e+03
1.646912e+03,3.566546e+03
1.647876e+03,3.548439e+03
1.648841e+03,3.541841e+03
1.649805e+03,3.543689e+03
1.650769e+03,3.545173e+03
1.651733e+03,3.545269e+03
1.652698e+03,3.541221e+03
1.653662e+03,3.529989e+03
1.654626e+03,3.523565e+03
1.655590e+03,3.528124e+03
1.656555e+03,3.533171e+03
1.657519e+03,3.538106e+03
1.658483e+03,3.542416e+03
1.659447e+03,3.541868e+03
1.660411e+03,3.537470e+03
1.661376e+03,3.534202e+03
1.662340e+03,3.532835e+03
1.663304e+03,3.531791e+03
1.664268e+03,3.526620e+03
1.665233e+03,3.525448e+03
1.666197e+03,3.529186e+03
1.667161e+03,3.530399e+03
1.668125e+03,3.526137e+03
1.669090e+03,3.517603e+03
1.670054e+03,3.501202e+03
1.671018e+03,3.485302e+03
1.671982e+03,3.485031e+03
1.672947e+03,3.500606e+03
1.673911e+03,3.507453e+03
1.674875e+03,3.501014e+03
1.675839e+03,3.491728e+03
1.676803e+03,3.482412e+03
1.677768e+03,3.476694e+03
1.678732e+03,3.478085e+03
1.679696e+03,3.480894e+03
1.680660e+03,3.478750e+03
1.681625e+03,3.473830e+03
1.682589e+03,3.472990e+03
1.683553e+03,3.477991e+03
1.684517e+03,3.476531e+03
1.685482e+03,3.468397e+03
1.686446e+03,3.462902e+03
1.687410e+03,3.463209e+03
1.688374e+03,3.464655e+03
1.689339e+03,3.463898e+03
1.690303e+03,3.462591e+03
1.691267e+03,3.463224e+03
1.692231e+03,3.463274e+03
1.693195e+03,3.453828e+03
1.694160e+03,3.436556e+03
1.695124e+03,3.434334e+03
1.696088e+03,3.445548e+03
1.697052e+03,3.453145e+03
1.698017e+03,3.441897e+03
1.698981e+03,3.434196e+03
1.699945e+03,3.436848e+03
1.700909e+03,3.439441e+03
1.701874e+03,3.440137e+03
1.702838e+03,3.439926e+03
1.703802e+03,3.434287e+03
1.704766e+03,3.425196e+03
1.705730e+03,3.420526e+03
1.706695e+03,3.421612e+03
1.707659e+03,3.422259e+03
1.708623e+03,3.422841e+03
1.709587e+03,3.423171e+03
1.710552e+03,3.421298e+03
1.711516e+03,3.418212e+03
1.712480e+03,3.417558e+03
1.713444e+03,3.414976e+03
1.714409e+03,3.404438e+03
1.715373e+03,3.391510e+03
1.716337e+03,3.382367e+03
1.717301e+03,3.378030e+03
1.718266e+03,3.382804e+03
1.719230e+03,3.395520e+03
1.720194e+03,3.400796e+03
1.721158e+03,3.393190e+03
1.722122e+03,3.384109e+03
1.723087e+03,3.381551e+03
1.724051e+03,3.380232e+03
1.725015e+03,3.377900e+03
1.725979e+03,3.376245e+03
1.726944e+03,3.376426e+03
1.727908e+03,3.378057e+03
1.728872e+03,3.381251e+03
1.729836e+03,3.383434e+03
1.730801e+03,3.379399e+03
1.731765e+03,3.360815e+03
1.732729e+03,3.354268e+03
1.733693e+03,3.367950e+03
1.734657e+03,3.376547e+03
1.735622e+03,3.366485e+03
1.736586e+03,3.350239e+03
1.737550e+03,3.345688e+03
1.738514e+03,3.346164e+03
1.739479e+03,3.343963e+03
1.740443e+03,3.339156e+03
1.741407e+03,3.337306e+03
1.742371e+03,3.339223e+03
1.743336e+03,3.336436e+03
1.744300e+03,3.328208e+03
1.745264e+03,3.320007e+03
1.746228e+03,3.319083e+03
1.747193e+03,3.318296e+03
1.748157e+03,3.314200e+03
1.749121e+03,3.311769e+03
1.750085e+03,3.310718e+03
1.751049e+03,3.308531e+03
1.752014e+03,3.306867e+03
1.752978e+03,3.306445e+03
1.753942e+03,3.307067e+03
1.754906e+03,3.308086e+03
1.755871e+03,3.308617e+03
1.756835e+03,3.307022e+03
1.757799e+03,3.302814e+03
1.758763e+03,3.299113e+03
1.759728e+03,3.296182e+03
1.760692e+03,3.292903e+03
1.761656e+03,3.290390e+03
1.762620e+03,3.291144e+03
1.763584e+03,3.290000e+03
1.764549e+03,3.276899e+03
1.765513e+03,3.251201e+03
1.766477e+03,3.251105e+03
1.767441e+03,3.272237e+03
1.768406e+03,3.281147e+03
1.769370e+03,3.265777e+03
1.770334e+03,3.253554e+03
1.771298e+03,3.258984e+03
1.772263e+03,3.263080e+03
1.773227e+03,3.261491e+03
1.774191e+03,3.257756e+03
1.775155e+03,3.255437e+03
1.776120e+03,3.253632e+03
1.777084e+03,3.253247e+03
1.778048e+03,3.252878e+03
1.779012e+03,3.247468e+03
1.779976e+03,3.235222e+03
1.780941e+03,3.230530e+03
1.781905e+03,3.231814e+03
1.782869e+03,3.233851e+03
1.783833e+03,3.235250e+03
1.784798e+03,3.235675e+03
1.785762e+03,3.234705e+03
1.786726e+03,3.232087e+03
1.787690e+03,3.228717e+03
1.788655e+03,3.223853e+03
1.789619e+03,3.211502e+03
1.790583e+03,3.197292e+03
1.791547e+03,3.193138e+03
1.792511e+03,3.198086e+03
1.793476e+03,3.202050e+03
1.794440e+03,3.201609e+03
1.795404e+03,3.202465e+03
1.796368e+03,3.203925e+03
1.797333e+03,3.202706e+03
1.798297e+03,3.193773e+03
1.799261e+03,3.188676e+03
1.800225e+03,3.201241e+03
1.801190e+03,3.211878e+03
1.802154e+03,3.208479e+03
1.803118e+03,3.195407e+03
1.804082e+03,3.183582e+03
1.805047e+03,3.174378e+03
1.806011e+03,3.168802e+03
1.806975e+03,3.166608e+03
1.807939e+03,3.166860e+03
1.808903e+03,3.169080e+03
1.809868e+03,3.170473e+03
1.810832e+03,3.171763e+03
1.811796e+03,3.172295e+03
1.812760e+03,3.168835e+03
1.813725e+03,3.166440e+03
1.814689e+03,3.171177e+03
1.815653e+03,3.175992e+03
1.816617e+03,3.175406e+03
1.817582e+03,3.171063e+03
1.818546e+03,3.168310e+03
1.819510e+03,3.164987e+03
1.820474e+03,3.155593e+03
1.821438e+03,3.139991e+03
1.822403e+03,3.130140e+03
1.823367e+03,3.127430e+03
1.824331e+03,3.129211e+03
1.825295e+03,3.134452e+03
1.826260e+03,3.136561e+03
1.827224e+03,3.130148e+03
1.828188e+03,3.124900e+03
1.829152e+03,3.126525e+03
1.830117e+03,3.126916e+03
1.831081e+03,3.116991e+03
1.832045e+03,3.101613e+03
1.833009e+03,3.099872e+03
1.833974e+03,3.108000e+03
1.834938e+03,3.115414e+03
1.835902e+03,3.118916e+03
1.836866e+03,3.109325e+03
1.837830e+03,3.084582e+03
1.838795e+03,3.075469e+03
1.839759e+03,3.090435e+03
1.840723e+03,3.107004e+03
1.841687e+03,3.110473e+03
1.842652e+03,3.107077e+03
1.843616e+03,3.094642e+03
1.844580e+03,3.082238e+03
1.845544e+03,3.083624e+03
1.846509e+03,3.091410e+03
1.847473e+03,3.091417e+03
1.848437e+03,3.087061e+03
1.849401e+03,3.085800e+03
1.850365e+03,3.088462e+03
1.851330e+03,3.081635e+03
1.852294e+03,3.067584e+03
1.853258e+03,3.057171e+03
1.854222e+03,3.052883e+03
1.855187e+03,3.053879e+03
1.856151e+03,3.066735e+03
1.857115e+03,3.069030e+03
1.858079e+03,3.052855e+03
1.859044e+03,3.035859e+03
1.860008e+03,3.044223e+03
1.860972e+03,3.056668e+03
1.861936e+03,3.048189e+03
1.862901e+03,3.031810e+03
1.863865e+03,3.025567e+03
1.864829e+03,3.026117e+03
1.865793e+03,3.021114e+03
1.866757e+03,3.014187e+03
1.867722e+03,3.014743e+03
1.868686e+03,3.027101e+03
1.869650e+03,3.028865e+03
1.870614e+03,3.015534e+03
1.871579e+03,3.003762e+03
1.872543e+03,2.999066e+03
1.873507e+03,3.000265e+03
1.874471e+03,3.006295e+03
1.875436e+03,3.011739e+03
1.876400e+03,3.016801e+03
1.877364e+03,3.019760e+03
1.878328e+03,3.018453e+03
1.879292e+03,3.013215e+03
1.880257e+03,3.000713e+03
1.881221e+03,2.984883e+03
1.882185e+03,2.976014e+03
1.883149e+03,2.975199e+03
1.884114e+03,2.977412e+03
1.885078e+03,2.981051e+03
1.886042e+03,2.979771e+03
1.887006e+03,2.970663e+03
1.887971e+03,2.964639e+03
1.888935e+03,2.968367e+03
1.889899e+03,2.972355e+03
1.890863e+03,2.973090e+03
1.891828e+03,2.970708e+03
1.892792e+03,2.966950e+03
1.893756e+03,2.961433e+03
1.894720e+03,2.955219e+03
1.895684e+03,2.950736e+03
1.896649e+03,2.946740e+03
1.897613e+03,2.943051e+03
1.898577e+03,2.945512e+03
1.899541e+03,2.950933e+03
1.900506e+03,2.950642e+03
1.901470e+03,2.942172e+03
1.902434e+03,2.937255e+03
1.903398e+03,2.935922e+03
1.904363e+03,2.934975e+03
1.905327e+03,2.933926e+03
1.906291e+03,2.934008e+03
1.907255e+03,2.937796e+03
1.908219e+03,2.934601e+03
1.909184e+03,2.920850e+03
1.910148e+03,2.906919e+03
1.911112e+03,2.907264e+03
1.912076e+03,2.910417e+03
1.913041e+03,2.904902e+03
1.914005e+03,2.897828e+03
1.914969e+03,2.897614e+03
1.915933e+03,2.901460e+03
1.916898e+03,2.898815e+03
1.917862e+03,2.892783e+03
1.918826e+03,2.888389e+03
1.919790e+03,2.887286e+03
1.920755e+03,2.885399e+03
1.921719e+03,2.881166e+03
1.922683e+03,2.876530e+03
1.923647e+03,2.872906e+03
1.924611e+03,2.870763e+03
1.925576e+03,2.870978e+03
1.926540e+03,2.872071e+03
1.927504e+03,2.872669e+03
1.928468e+03,2.870153e+03
1.929433e+03,2.855109e+03
1.930397e+03,2.843538e+03
1.931361e+03,2.856126e+03
1.932325e+03,2.868651e+03
1.933290e+03,2.859941e+03
1.934254e+03,2.843209e+03
1.935218e+03,2.847378e+03
1.936182e+03,2.860088e+03
1.937146e+03,2.864948e+03
1.938111e+03,2.862490e+03
1.939075e+03,2.862399e+03
1.940039e+03,2.864602e+03
1.941003e+03,2.857961e+03
1.941968e+03,2.839620e+03
1.942932e+03,2.822784e+03
1.943896e+03,2.809615e+03
1.944860e+03,2.807261e+03
1.945825e+03,2.818220e+03
1.946789e+03,2.829156e+03
1.947753e+03,2.830420e+03
1.948717e+03,2.826491e+03
1.949682e+03,2.815118e+03
1.950646e+03,2.805950e+03
1.951610e+03,2.805670e+03
1.952574e+03,2.809647e+03
1.953538e+03,2.814547e+03
1.954503e+03,2.816526e+03
1.955467e+03,2.810549e+03
1.956431e+03,2.801218e+03
1.957395e+03,2.799234e+03
1.958360e+03,2.801246e+03
1.959324e+03,2.801286e+03
1.960288e+03,2.800009e+03
1.961252e+03,2.798234e+03
1.962217e+03,2.794540e+03
1.963181e+03,2.789301e+03
1.964145e+03,2.782360e+03
1.965109e+03,2.775935e+03
1.966073e+03,2.772112e+03
1.967038e+03,2.770075e+03
1.968002e+03,2.766765e+03
1.968966e+03,2.764410e+03
1.969930e+03,2.765511e+03
1.970895e+03,2.764623e+03
1.971859e+03,2.758988e+03
1.972823e+03,2.754425e+03
1.973787e+03,2.752271e+03
1.974752e+03,2.750415e+03
1.975716e+03,2.747215e+03
1.976680e+03,2.742578e+03
1.977644e+03,2.738230e+03
1.978609e+03,2.735108e+03
1.979573e+03,2.730695e+03
1.980537e+03,2.726095e+03
1.981501e+03,2.730904e+03
1.982465e+03,2.741013e+03
1.983430e+03,2.742001e+03
1.984394e+03,2.731426e+03
1.985358e+03,2.722374e+03
1.986322e+03,2.714848e+03
1.987287e+03,2.712116e+03
1.988251e+03,2.716076e+03
1.989215e+03,2.716879e+03
1.990179e+03,2.713534e+03
1.991144e+03,2.710669e+03
1.992108e+03,2.710405e+03
1.993072e+03,2.710747e+03
1.994036e+03,2.707961e+03
1.995000e+03,2.706998e+03
1.995965e+03,2.710437e+03
1.996929e+03,2.712175e+03
1.997893e+03,2.701009e+03
1.998857e+03,2.687650e+03
1.999822e+03,2.682426e+03
2.000786e+03,2.679464e+03
2.001750e+03,2.674531e+03
2.002714e+03,2.672376e+03
2.003679e+03,2.683889e+03
2.004643e+03,2.698566e+03
2.005607e+03,2.701576e+03
2.006571e+03,2.695108e+03
2.007536e+03,2.681327e+03
2.008500e+03,2.663938e+03
2.009464e+03,2.654185e+03
2.010428e+03,2.653592e+03
2.011392e+03,2.651532e+03
2.012357e+03,2.646328e+03
2.013321e+03,2.654463e+03
2.014285e+03,2.673428e+03
2.015249e+03,2.683101e+03
2.016214e+03,2.664155e+03
2.017178e+03,2.654384e+03
2.018142e+03,2.657171e+03
2.019106e+03,2.656176e+03
2.020071e+03,2.638243e+03
2.021035e+03,2.625323e+03
2.021999e+03,2.631187e+03
2.022963e+03,2.636876e+03
2.023927e+03,2.636813e+03
2.024892e+03,2.633984e+03
2.025856e+03,2.631051e+03
2.026820e+03,2.626245e+03
2.027784e+03,2.616734e+03
2.028749e+03,2.606950e+03
2.029713e+03,2.605478e+03
2.030677e+03,2.608046e+03
2.031641e+03,2.607308e+03
2.032606e+03,2.606019e+03
2.033570e+03,2.611938e+03
2.034534e+03,2.620768e+03
2.035498e+03,2.612439e+03
2.036463e+03,2.594807e+03
2.037427e+03,2.586436e+03
2.038391e+03,2.589482e+03
2.039355e+03,2.583089e+03
2.040319e+03,2.570901e+03
2.041284e+03,2.567749e+03
2.042248e+03,2.576359e+03
2.043212e+03,2.579853e+03
2.044176e+03,2.577649e+03
2.045141e+03,2.575656e+03
2.046105e+03,2.574320e+03
2.047069e+03,2.577330e+03
2.048033e+03,2.593290e+03
2.048998e+03,2.595495e+03
2.049962e+03,2.581831e+03
2.050926e+03,2.567538e+03
2.051890e+03,2.560974e+03
2.052854e+03,2.559036e+03
2.053819e+03,2.561813e+03
2.054783e+03,2.560303e+03
2.055747e+03,2.549975e+03
2.056711e+03,2.539726e+03
2.057676e+03,2.537365e+03
2.058640e+03,2.537991e+03
2.059604e+03,2.536212e+03
2.060568e+03,2.535372e+03
2.061533e+03,2.547557e+03
2.062497e+03,2.559477e+03
2.063461e+03,2.554972e+03
2.064425e+03,2.543663e+03
2.065390e+03,2.538292e+03
2.066354e+03,2.535265e+03
2.067318e+03,2.526860e+03
2.068282e+03,2.518182e+03
2.069247e+03,2.519237e+03
2.070211e+03,2.526855e+03
2.071175e+03,2.524175e+03
2.072139e+03,2.515035e+03
2.073104e+03,2.506771e+03
2.074068e+03,2.500646e+03
2.075032e+03,2.499052e+03
2.075996e+03,2.500731e+03
2.076960e+03,2.505772e+03
2.077925e+03,2.513785e+03
2.078889e+03,2.518102e+03
2.079853e+03,2.518632e+03
2.080817e+03,2.510839e+03
2.081781e+03,2.494532e+03
2.082746e+03,2.477723e+03
2.083710e+03,2.462828e+03
2.084674e+03,2.453923e+03
2.085638e+03,2.452625e+03
2.086603e+03,2.458024e+03
2.087567e+03,2.470899e+03
2.088531e+03,2.478406e+03
2.089495e+03,2.477612e+03
2.090459e+03,2.472334e+03
2.091424e+03,2.467937e+03
2.092388e+03,2.463793e+03
2.093352e+03,2.453882e+03
2.094316e+03,2.451637e+03
2.095281e+03,2.460735e+03
2.096245e+03,2.468582e+03
2.097209e+03,2.460818e+03
2.098173e+03,2.451225e+03
2.099138e+03,2.448249e+03
2.100102e+03,2.444578e+03
2.101066e+03,2.427017e+03
2.102030e+03,2.410134e+03
2.102995e+03,2.410810e+03
2.103959e+03,2.415345e+03
2.104923e+03,2.412563e+03
2.105887e+03,2.408830e+03
2.106852e+03,2.408248e+03
2.107816e+03,2.410949e+03
2.108780e+03,2.421059e+03
2.109744e+03,2.432529e+03
2.110708e+03,2.431758e+03
2.111673e+03,2.425306e+03
2.112637e+03,2.417943e+03
2.113601e+03,2.409799e+03
2.114565e+03,2.404671e+03
2.115530e+03,2.400878e+03
2.116494e+03,2.393230e+03
2.117458e+03,2.386299e+03
2.118422e+03,2.384222e+03
2.119387e+03,2.385401e+03
2.120351e+03,2.398888e+03
2.121315e+03,2.416867e+03
2.122279e+03,2.416063e+03
2.123244e+03,2.395152e+03
2.124208e+03,2.388039e+03
2.125172e+03,2.391052e+03
2.126136e+03,2.387078e+03
2.127101e+03,2.371485e+03
2.128065e+03,2.369081e+03
2.129029e+03,2.376917e+03
2.129993e+03,2.374213e+03
2.130958e+03,2.354692e+03
2.131922e+03,2.347677e+03
2.132886e+03,2.357314e+03
2.133850e+03,2.358813e+03
2.134814e+03,2.352149e+03
2.135779e+03,2.347914e+03
2.136743e+03,2.347300e+03
2.137707e+03,2.352944e+03
2.138671e+03,2.365037e+03
2.139635e+03,2.367478e+03
2.140600e+03,2.341886e+03
2.141564e+03,2.330448e+03
2.142528e+03,2.336908e+03
2.143492e+03,2.341474e+03
2.144457e+03,2.333991e+03
2.145421e+03,2.328458e+03
2.146385e+03,2.330574e+03
2.147349e+03,2.328523e+03
2.148313e+03,2.319873e+03
2.149278e+03,2.313172e+03
2.150242e+03,2.306580e+03
2.151206e+03,2.312296e+03
2.152170e+03,2.334123e+03
2.153135e+03,2.346636e+03
2.154099e+03,2.323116e+03
2.155063e+03,2.304987e+03
2.156027e+03,2.302703e+03
2.156992e+03,2.306368e+03
2.157956e+03,2.308387e+03
2.158920e+03,2.308997e+03
2.159884e+03,2.308385e+03
2.160849e+03,2.306702e+03
2.161813e+03,2.305005e+03
2.162777e+03,2.298985e+03
2.163741e+03,2.279792e+03
2.164706e+03,2.264326e+03
2.165670e+03,2.261865e+03
2.166634e+03,2.264589e+03
2.167598e+03,2.260428e+03
2.168563e+03,2.260611e+03
2.169527e+03,2.269532e+03
2.170491e+03,2.277184e+03
2.171455e+03,2.276436e+03
2.172419e+03,2.271512e+03
2.173384e+03,2.264397e+03
2.174348e+03,2.257057e+03
2.175312e+03,2.247352e+03
2.176276e+03,2.240129e+03
2.177241e+03,2.245270e+03
2.178205e+03,2.250481e+03
2.179169e+03,2.249803e+03
2.180133e+03,2.246095e+03
2.181098e+03,2.237092e+03
2.182062e+03,2.230810e+03
2.183026e+03,2.231601e+03
2.183990e+03,2.233963e+03
2.184955e+03,2.227444e+03
2.185919e+03,2.222813e+03
2.186883e+03,2.230857e+03
2.187847e+03,2.238468e+03
2.188812e+03,2.225413e+03
2.189776e+03,2.209567e+03
2.190740e+03,2.210712e+03
2.191704e+03,2.217463e+03
2.192668e+03,2.222899e+03
2.193633e+03,2.226964e+03
2.194597e+03,2.230223e+03
2.195561e+03,2.230283e+03
2.196525e+03,2.222604e+03
2.197490e+03,2.212214e+03
2.198454e+03,2.208645e+03
2.199418e+03,2.206938e+03
2.200382e+03,2.202283e+03
2.201346e+03,2.199231e+03
2.202311e+03,2.206094e+03
2.203275e+03,2.214118e+03
2.204239e+03,2.212714e+03
2.205203e+03,2.204601e+03
2.206167e+03,2.193908e+03
2.207132e+03,2.184570e+03
2.208096e+03,2.182948e+03
2.209060e+03,2.179847e+03
2.210024e+03,2.162246e+03
2.210989e+03,2.142882e+03
2.211953e+03,2.144646e+03
2.212917e+03,2.158542e+03
2.213881e+03,2.170894e+03
2.214846e+03,2.178520e+03
2.215810e+03,2.175248e+03
2.216774e+03,2.168179e+03
2.217738e+03,2.170198e+03
2.218703e+03,2.174076e+03
2.219667e+03,2.161801e+03
2.220631e+03,2.147735e+03
2.221595e+03,2.146603e+03
2.222560e+03,2.148446e+03
2.223524e+03,2.137606e+03
2.224488e+03,2.124031e+03
2.225452e+03,2.120019e+03
2.226417e+03,2.121381e+03
2.227381e+03,2.126193e+03
2.228345e+03,2.132052e+03
2.229309e+03,2.131048e+03
2.230273e+03,2.130144e+03
2.231238e+03,2.139097e+03
2.232202e+03,2.148167e+03
2.233166e+03,2.143040e+03
2.234130e+03,2.134130e+03
2.235095e+03,2.128025e+03
2.236059e+03,2.124518e+03
2.237023e+03,2.124774e+03
2.237987e+03,2.124270e+03
2.238952e+03,2.119470e+03
2.239916e+03,2.111073e+03
2.240880e+03,2.099489e+03
2.241844e+03,2.089928e+03
2.242809e+03,2.086350e+03
2.243773e+03,2.085009e+03
2.244737e+03,2.079363e+03
2.245701e+03,2.075426e+03
2.246666e+03,2.081163e+03
2.247630e+03,2.085365e+03
2.248594e+03,2.082480e+03
2.249558e+03,2.077314e+03
2.250522e+03,2.068241e+03
2.251487e+03,2.065442e+03
2.252451e+03,2.074053e+03
2.253415e+03,2.081982e+03
2.254379e+03,2.080510e+03
2.255344e+03,2.074780e+03
2.256308e+03,2.066426e+03
2.257272e+03,2.059717e+03
2.258236e+03,2.060547e+03
2.259200e+03,2.061201e+03
2.260165e+03,2.057287e+03
2.261129e+03,2.055229e+03
2.262093e+03,2.065622e+03
2.263057e+03,2.069513e+03
2.264022e+03,2.063238e+03
2.264986e+03,2.055015e+03
2.265950e+03,2.046155e+03
2.266914e+03,2.039796e+03
2.267879e+03,2.035022e+03
2.268843e+03,2.032223e+03
2.269807e+03,2.035635e+03
2.270771e+03,2.037455e+03
2.271736e+03,2.034750e+03
2.272700e+03,2.033271e+03
2.273664e+03,2.032041e+03
2.274628e+03,2.033851e+03
2.275593e+03,2.042106e+03
2.276557e+03,2.044531e+03
2.277521e+03,2.040872e+03
2.278485e+03,2.035240e+03
2.279449e+03,2.027561e+03
2.280414e+03,2.022296e+03
2.281378e+03,2.019375e+03
2.282342e+03,2.017120e+03
2.283306e+03,2.011050e+03
2.284271e+03,2.011185e+03
2.285235e+03,2.016411e+03
2.286199e+03,2.019176e+03
2.287163e+03,2.020619e+03
2.288127e+03,2.010640e+03
2.289092e+03,1.989493e+03
2.290056e+03,1.977877e+03
2.291020e+03,1.981792e+03
2.291984e+03,1.980266e+03
2.292948e+03,1.975464e+03
2.293913e+03,1.981067e+03
2.294877e+03,1.995734e+03
2.295841e+03,1.998287e+03
2.296805e+03,1.988977e+03
2.297770e+03,1.985430e+03
2.298734e+03,1.986377e+03
2.299698e+03,1.983094e+03
2.300662e+03,1.976395e+03
2.301627e+03,1.967848e+03
2.302591e+03,1.959491e+03
2.303555e+03,1.958718e+03
2.304519e+03,1.963356e+03
2.305484e+03,1.961743e+03
2.306448e+03,1.957521e+03
2.307412e+03,1.955041e+03
2.308376e+03,1.953873e+03
2.309341e+03,1.956360e+03
2.310305e+03,1.958827e+03
2.311269e+03,1.956560e+03
2.312233e+03,1.954122e+03
2.313198e+03,1.960450e+03
2.314162e+03,1.964089e+03
2.315126e+03,1.948018e+03
2.316090e+03,1.930240e+03
2.317054e+03,1.935293e+03
2.318019e+03,1.944033e+03
2.318983e+03,1.934521e+03
2.319947e+03,1.925111e+03
2.320911e+03,1.935019e+03
2.321876e+03,1.944968e+03
2.322840e+03,1.935985e+03
2.323804e+03,1.927334e+03
2.324768e+03,1.929224e+03
2.325733e+03,1.931858e+03
2.326697e+03,1.925932e+03
2.327661e+03,1.921134e+03
2.328625e+03,1.919038e+03
2.329590e+03,1.914091e+03
2.330554e+03,1.902079e+03
2.331518e+03,1.895809e+03
2.332482e+03,1.897131e+03
2.333447e+03,1.899971e+03
2.334411e+03,1.902674e+03
2.335375e+03,1.901657e+03
2.336339e+03,1.896928e+03
2.337303e+03,1.892532e+03
2.338268e+03,1.887842e+03
2.339232e+03,1.889033e+03
2.340196e+03,1.894919e+03
2.341160e+03,1.892054e+03
2.342125e+03,1.875120e+03
2.343089e+03,1.876427e+03
2.344053e+03,1.888711e+03
2.345017e+03,1.894465e+03
2.345981e+03,1.892253e+03
2.346946e+03,1.889178e+03
2.347910e+03,1.885589e+03
2.348874e+03,1.875266e+03
2.349838e+03,1.860521e+03
2.350802e+03,1.854059e+03
2.351767e+03,1.853439e+03
2.352731e+03,1.851847e+03
2.353695e+03,1.853248e+03
2.354659e+03,1.866219e+03
2.355624e+03,1.879629e+03
2.356588e+03,1.874338e+03
2.357552e+03,1.865982e+03
2.358516e+03,1.870686e+03
2.359481e+03,1.876388e+03
2.360445e+03,1.863121e+03
2.361409e+03,1.851294e+03
2.362373e+03,1.854174e+03
2.363338e+03,1.855122e+03
2.364302e+03,1.834759e+03
2.365266e+03,1.823618e+03
2.366230e+03,1.830227e+03
2.367195e+03,1.836879e+03
2.368159e+03,1.828728e+03
2.369123e+03,1.822584e+03
2.370087e+03,1.822403e+03
2.371052e+03,1.823225e+03
2.372016e+03,1.821458e+03
2.372980e+03,1.828907e+03
2.373944e+03,1.843972e+03
2.374908e+03,1.847244e+03
2.375873e+03,1.829785e+03
2.376837e+03,1.817047e+03
2.377801e+03,1.809329e+03
2.378765e+03,1.808151e+03
2.379730e+03,1.812795e+03
2.380694e+03,1.811010e+03
2.381658e+03,1.806420e+03
2.382622e+03,1.805966e+03
2.383587e+03,1.807211e+03
2.384551e+03,1.798841e+03
2.385515e+03,1.788026e+03
2.386479e+03,1.792680e+03
2.387444e+03,1.802068e+03
2.388408e+03,1.799063e+03
2.389372e+03,1.794120e+03
2.390336e+03,1.798102e+03
2.391301e+03,1.802302e+03
2.392265e+03,1.793863e+03
2.393229e+03,1.788209e+03
2.394193e+03,1.798268e+03
2.395157e+03,1.803858e+03
2.396122e+03,1.788210e+03
2.397086e+03,1.776143e+03
2.398050e+03,1.776708e+03
2.399014e+03,1.779302e+03
2.399979e+03,1.780189e+03
2.400943e+03,1.779628e+03
2.401907e+03,1.776797e+03
2.402871e+03,1.781848e+03
2.403835e+03,1.797734e+03
2.404800e+03,1.797588e+03
2.405764e+03,1.780885e+03
2.406728e+03,1.771182e+03
2.407692e+03,1.769426e+03
2.408656e+03,1.771291e+03
2.409621e+03,1.774856e+03
2.410585e+03,1.763978e+03
2.411549e+03,1.746605e+03
2.412513e+03,1.742899e+03
2.413478e+03,1.747231e+03
2.414442e+03,1.745492e+03
2.415406e+03,1.742927e+03
2.416370e+03,1.745922e+03
2.417335e+03,1.749818e+03
2.418299e+03,1.747151e+03
2.419263e+03,1.741916e+03
2.420227e+03,1.735119e+03
2.421192e+03,1.729749e+03
2.422156e+03,1.731482e+03
2.423120e+03,1.732676e+03
2.424084e+03,1.730208e+03
2.425049e+03,1.724211e+03
2.426013e+03,1.714682e+03
2.426977e+03,1.708947e+03
2.427941e+03,1.708974e+03
2.428906e+03,1.712505e+03
2.429870e+03,1.718010e+03
2.430834e+03,1.723923e+03
2.431798e+03,1.729975e+03
2.432762e+03,1.732745e+03
2.433727e+03,1.731572e+03
2.434691e+03,1.722427e+03
2.435655e+03,1.709152e+03
2.436619e+03,1.699027e+03
2.437584e+03,1.692981e+03
2.438548e+03,1.696153e+03
2.439512e+03,1.702382e+03
2.440476e+03,1.704835e+03
2.441441e+03,1.703725e+03
2.442405e+03,1.699595e+03
2.443369e+03,1.697380e+03
2.444333e+03,1.700787e+03
2.445298e+03,1.702631e+03
2.446262e+03,1.689278e+03
2.447226e+03,1.687977e+03
2.448190e+03,1.704552e+03
2.449155e+03,1.716724e+03
2.450119e+03,1.709535e+03
2.451083e+03,1.703905e+03
2.452047e+03,1.699171e+03
2.453011e+03,1.690477e+03
2.453976e+03,1.676983e+03
2.454940e+03,1.673914e+03
2.455904e+03,1.679096e+03
2.456868e+03,1.681964e+03
2.457833e+03,1.681883e+03
2.458797e+03,1.687617e+03
2.459761e+03,1.690282e+03
2.460725e+03,1.671453e+03
2.461689e+03,1.648882e+03
2.462654e+03,1.651600e+03
2.463618e+03,1.658456e+03
2.464582e+03,1.656204e+03
2.465546e+03,1.655103e+03
2.466510e+03,1.668473e+03
2.467475e+03,1.668800e+03
2.468439e+03,1.649323e+03
2.469403e+03,1.635669e+03
2.470367e+03,1.652433e+03
2.471332e+03,1.660685e+03
2.472296e+03,1.658705e+03
2.473260e+03,1.651637e+03
2.474224e+03,1.640501e+03
2.475189e+03,1.639687e+03
2.476153e+03,1.646705e+03
2.477117e+03,1.651390e+03
2.478081e+03,1.651723e+03
2.479046e+03,1.642980e+03
2.480010e+03,1.631888e+03
2.480974e+03,1.629083e+03
2.481938e+03,1.629473e+03
2.482903e+03,1.626456e+03
2.483867e+03,1.623736e+03
2.484831e+03,1.623086e+03
2.485795e+03,1.621651e+03
2.486760e+03,1.616273e+03
2.487724e+03,1.614796e+03
2.488688e+03,1.618938e+03
2.489652e+03,1.624054e+03
2.490616e+03,1.627013e+03
2.491581e+03,1.629955e+03
2.492545e+03,1.632761e+03
2.493509e+03,1.628000e+03
2.494473e+03,1.614676e+03
2.495438e+03,1.606165e+03
2.496402e+03,1.603014e+03
2.497366e+03,1.610643e+03
2.498330e+03,1.621226e+03
2.499295e+03,1.622069e+03
2.500259e+03,1.614045e+03
2.501223e+03,1.597319e+03
2.502187e+03,1.585347e+03
2.503152e+03,1.598402e+03
2.504116e+03,1.609201e+03
2.505080e+03,1.609679e+03
2.506044e+03,1.606804e+03
2.507009e+03,1.601551e+03
2.507973e+03,1.597078e+03
2.508937e+03,1.594356e+03
2.509901e+03,1.593612e+03
2.510865e+03,1.594491e+03
2.511830e+03,1.594368e+03
2.512794e+03,1.593088e+03
2.513758e+03,1.595483e+03
2.514722e+03,1.599670e+03
2.515687e+03,1.595604e+03
2.516651e+03,1.587989e+03
2.517615e+03,1.580921e+03
2.518579e+03,1.576495e+03
2.519543e+03,1.581017e+03
2.520508e+03,1.582973e+03
2.521472e+03,1.578514e+03
2.522436e+03,1.572896e+03
2.523400e+03,1.567282e+03
2.524365e+03,1.568521e+03
2.525329e+03,1.575344e+03
2.526293e+03,1.580188e+03
2.527257e+03,1.582851e+03
2.528221e+03,1.579743e+03
2.529186e+03,1.572591e+03
2.530150e+03,1.566664e+03
2.531114e+03,1.563015e+03
2.532078e+03,1.562419e+03
2.533043e+03,1.561826e+03
2.534007e+03,1.556326e+03
2.534971e+03,1.550448e+03
2.535935e+03,1.553943e+03
2.536900e+03,1.559126e+03
2.537864e+03,1.564373e+03
2.538828e+03,1.560774e+03
2.539792e+03,1.534711e+03
2.540757e+03,1.531558e+03
2.541721e+03,1.555119e+03
2.542685e+03,1.563447e+03
2.543649e+03,1.554871e+03
2.544614e+03,1.559861e+03
2.545578e+03,1.570793e+03
2.546542e+03,1.563636e+03
2.547506e+03,1.547260e+03
2.548470e+03,1.539812e+03
2.549435e+03,1.539057e+03
2.550399e+03,1.546179e+03
2.551363e+03,1.551175e+03
2.552327e+03,1.544775e+03
2.553292e+03,1.540156e+03
2.554256e+03,1.543155e+03
2.555220e+03,1.539310e+03
2.556184e+03,1.525864e+03
2.557149e+03,1.517561e+03
2.558113e+03,1.517959e+03
2.559077e+03,1.534463e+03
2.560041e+03,1.556887e+03
2.561006e+03,1.547556e+03
2.561970e+03,1.522775e+03
2.562934e+03,1.509546e+03
2.563898e+03,1.507336e+03
2.564863e+03,1.521189e+03
2.565827e+03,1.531639e+03
2.566791e+03,1.522600e+03
2.567755e+03,1.516638e+03
2.568719e+03,1.518236e+03
2.569684e+03,1.511689e+03
2.570648e+03,1.484760e+03
2.571612e+03,1.479533e+03
2.572576e+03,1.494244e+03
2.573541e+03,1.507450e+03
2.574505e+03,1.513463e+03
2.575469e+03,1.503733e+03
2.576433e+03,1.491137e+03
2.577397e+03,1.500042e+03
2.578362e+03,1.513638e+03
2.579326e+03,1.505569e+03
2.580290e+03,1.502065e+03
2.581254e+03,1.514754e+03
2.582219e+03,1.522136e+03
2.583183e+03,1.503088e+03
2.584147e+03,1.489879e+03
2.585111e+03,1.485951e+03
2.586075e+03,1.486014e+03
2.587040e+03,1.488540e+03
2.588004e+03,1.484868e+03
2.588968e+03,1.479529e+03
2.589932e+03,1.487204e+03
2.590897e+03,1.498408e+03
2.591861e+03,1.489008e+03
2.592825e+03,1.478404e+03
2.593789e+03,1.478854e+03
2.594754e+03,1.480085e+03
2.595718e+03,1.475332e+03
2.596682e+03,1.469277e+03
2.597646e+03,1.461829e+03
2.598611e+03,1.460444e+03
2.599575e+03,1.465843e+03
2.600539e+03,1.463660e+03
2.601503e+03,1.455359e+03
2.602468e+03,1.455658e+03
2.603432e+03,1.459954e+03
2.604396e+03,1.462975e+03
2.605360e+03,1.463779e+03
2.606324e+03,1.456463e+03
2.607289e+03,1.451796e+03
2.608253e+03,1.455269e+03
2.609217e+03,1.458619e+03
2.610181e+03,1.456138e+03
2.611146e+03,1.451000e+03
2.612110e+03,1.444773e+03
2.613074e+03,1.443234e+03
2.614038e+03,1.445902e+03
2.615003e+03,1.438914e+03
2.615967e+03,1.428299e+03
2.616931e+03,1.426669e+03
2.617895e+03,1.429752e+03
2.618860e+03,1.432288e+03
2.619824e+03,1.435580e+03
2.620788e+03,1.439282e+03
2.621752e+03,1.445892e+03
2.622717e+03,1.463562e+03
2.623681e+03,1.459554e+03
2.624645e+03,1.436329e+03
2.625609e+03,1.432335e+03
2.626573e+03,1.445659e+03
2.627538e+03,1.443322e+03
2.628502e+03,1.435713e+03
2.629466e+03,1.438801e+03
2.630430e+03,1.442983e+03
2.631395e+03,1.432270e+03
2.632359e+03,1.422152e+03
2.633323e+03,1.418014e+03
2.634287e+03,1.418010e+03
2.635251e+03,1.421717e+03
2.636216e+03,1.424678e+03
2.637180e+03,1.424616e+03
2.638144e+03,1.418586e+03
2.639108e+03,1.410028e+03
2.640073e+03,1.412291e+03
2.641037e+03,1.420656e+03
2.642001e+03,1.428958e+03
2.642965e+03,1.431010e+03
2.643929e+03,1.423502e+03
2.644894e+03,1.413200e+03
2.645858e+03,1.399826e+03
2.646822e+03,1.397967e+03
2.647786e+03,1.405461e+03
2.648751e+03,1.404744e+03
2.649715e+03,1.394498e+03
2.650679e+03,1.394610e+03
2.651643e+03,1.400448e+03
2.652608e+03,1.404719e+03
2.653572e+03,1.406987e+03
2.654536e+03,1.406877e+03
2.655500e+03,1.406033e+03
2.656465e+03,1.405535e+03
2.657429e+03,1.399791e+03
2.658393e+03,1.385303e+03
2.659357e+03,1.381842e+03
2.660322e+03,1.392034e+03
2.661286e+03,1.397321e+03
2.662250e+03,1.398865e+03
2.663214e+03,1.403837e+03
2.664178e+03,1.406822e+03
2.665143e+03,1.399508e+03
2.666107e+03,1.390954e+03
2.667071e+03,1.385393e+03
2.668035e+03,1.384927e+03
2.669000e+03,1.393102e+03
2.669964e+03,1.392311e+03
2.670928e+03,1.383991e+03
2.671892e+03,1.384728e+03
2.672857e+03,1.392538e+03
2.673821e+03,1.386648e+03
2.674785e+03,1.373281e+03
2.675749e+03,1.358879e+03
2.676714e+03,1.351246e+03
2.677678e+03,1.365289e+03
2.678642e+03,1.376221e+03
2.679606e+03,1.379331e+03
2.680571e+03,1.374419e+03
2.681535e+03,1.362558e+03
2.682499e+03,1.356460e+03
2.683463e+03,1.355198e+03
2.684427e+03,1.353174e+03
2.685392e+03,1.352149e+03
2.686356e+03,1.354998e+03
2.687320e+03,1.357944e+03
2.688284e+03,1.360097e+03
2.689249e+03,1.359703e+03
2.690213e+03,1.356073e+03
2.691177e+03,1.353259e+03
2.692141e+03,1.354122e+03
2.693105e+03,1.357378e+03
2.694070e+03,1.361196e+03
2.695034e+03,1.359464e+03
2.695998e+03,1.355328e+03
2.696962e+03,1.353064e+03
2.697927e+03,1.354132e+03
2.698891e+03,1.358093e+03
2.699855e+03,1.360431e+03
2.700819e+03,1.361365e+03
2.701783e+03,1.348790e+03
2.702748e+03,1.324635e+03
2.703712e+03,1.317500e+03
2.704676e+03,1.324000e+03
2.705640e+03,1.339947e+03
2.706605e+03,1.352879e+03
2.707569e+03,1.341890e+03
2.708533e+03,1.328172e+03
2.709497e+03,1.320631e+03
2.710462e+03,1.317948e+03
2.711426e+03,1.322919e+03
2.712390e+03,1.332275e+03
2.713354e+03,1.342543e+03
2.714319e+03,1.336259e+03
2.715283e+03,1.322071e+03
2.716247e+03,1.323893e+03
2.717211e+03,1.324303e+03
2.718176e+03,1.309007e+03
2.719140e+03,1.301088e+03
2.720104e+03,1.321286e+03
2.721068e+03,1.332124e+03
2.722032e+03,1.328940e+03
2.722997e+03,1.316484e+03
2.723961e+03,1.300463e+03
2.724925e+03,1.304987e+03
2.725889e+03,1.316781e+03
2.726854e+03,1.314468e+03
2.727818e+03,1.311855e+03
2.728782e+03,1.315729e+03
2.729746e+03,1.315559e+03
2.730711e+03,1.301389e+03
2.731675e+03,1.303304e+03
2.732639e+03,1.316872e+03
2.733603e+03,1.313943e+03
2.734568e+03,1.301671e+03
2.735532e+03,1.302902e+03
2.736496e+03,1.308238e+03
2.737460e+03,1.312535e+03
2.738425e+03,1.310111e+03
2.739389e+03,1.293230e+03
2.740353e+03,1.288866e+03
2.741317e+03,1.301878e+03
2.742281e+03,1.320550e+03
2.743246e+03,1.338396e+03
2.744210e+03,1.328738e+03
2.745174e+03,1.309340e+03
2.746138e+03,1.308039e+03
2.747103e+03,1.303493e+03
2.748067e+03,1.287706e+03
2.749031e+03,1.274113e+03
2.749995e+03,1.266329e+03
2.750959e+03,1.275356e+03
2.751924e+03,1.293789e+03
2.752888e+03,1.295735e+03
2.753852e+03,1.288642e+03
2.754816e+03,1.291247e+03
2.755781e+03,1.295425e+03
2.756745e+03,1.297525e+03
2.757709e+03,1.290524e+03
2.758673e+03,1.271193e+03
2.759637e+03,1.270035e+03
2.760602e+03,1.290958e+03
2.761566e+03,1.300344e+03
2.762530e+03,1.299645e+03
2.763494e+03,1.285496e+03
2.764459e+03,1.268150e+03
2.765423e+03,1.256198e+03
2.766387e+03,1.248351e+03
2.767351e+03,1.244693e+03
2.768316e+03,1.251910e+03
2.769280e+03,1.269989e+03
2.770244e+03,1.269209e+03
2.771208e+03,1.260193e+03
2.772173e+03,1.266891e+03
2.773137e+03,1.273156e+03
2.774101e+03,1.260445e+03
2.775065e+03,1.249515e+03
2.776030e+03,1.246911e+03
2.776994e+03,1.252783e+03
2.777958e+03,1.262995e+03
2.778922e+03,1.262901e+03
2.779886e+03,1.257028e+03
2.780851e+03,1.262105e+03
2.781815e+03,1.261977e+03
2.782779e+03,1.246305e+03
2.783743e+03,1.234750e+03
2.784708e+03,1.239455e+03
2.785672e+03,1.245414e+03
2.786636e+03,1.249852e+03
2.787600e+03,1.244560e+03
2.788565e+03,1.236662e+03
2.789529e+03,1.244650e+03
2.790493e+03,1.258312e+03
2.791457e+03,1.273893e+03
2.792422e+03,1.277544e+03
2.793386e+03,1.269229e+03
2.794350e+03,1.265623e+03
2.795314e+03,1.269867e+03
2.796279e+03,1.267764e+03
2.797243e+03,1.257890e+03
2.798207e+03,1.238585e+03
2.799171e+03,1.223697e+03
2.800135e+03,1.234482e+03
2.801100e+03,1.243270e+03
2.802064e+03,1.244950e+03
2.803028e+03,1.239342e+03
2.803992e+03,1.230011e+03
2.804957e+03,1.236315e+03
2.805921e+03,1.250285e+03
2.806885e+03,1.259188e+03
2.807849e+03,1.256879e+03
2.808813e+03,1.241135e+03
2.809778e+03,1.231590e+03
2.810742e+03,1.239802e+03
2.811706e+03,1.247625e+03
2.812670e+03,1.254013e+03
2.813635e+03,1.265716e+03
2.814599e+03,1.273567e+03
2.815563e+03,1.250567e+03
2.816527e+03,1.232990e+03
2.817491e+03,1.241657e+03
2.818456e+03,1.240527e+03
2.819420e+03,1.226044e+03
2.820384e+03,1.221818e+03
2.821348e+03,1.227382e+03
2.822313e+03,1.228433e+03
2.823277e+03,1.224406e+03
2.824241e+03,1.213837e+03
2.825205e+03,1.207227e+03
2.826170e+03,1.213245e+03
2.827134e+03,1.218495e+03
2.828098e+03,1.220232e+03
2.829062e+03,1.219605e+03
2.830027e+03,1.216385e+03
2.830991e+03,1.207023e+03
2.831955e+03,1.204694e+03
2.832919e+03,1.229616e+03
2.833884e+03,1.231423e+03
2.834848e+03,1.206010e+03
2.835812e+03,1.203430e+03
2.836776e+03,1.224631e+03
2.837740e+03,1.228029e+03
2.838705e+03,1.223435e+03
2.839669e+03,1.223878e+03
2.840633e+03,1.216246e+03
2.841597e+03,1.191735e+03
2.842562e+03,1.185513e+03
2.843526e+03,1.208821e+03
2.844490e+03,1.220983e+03
2.845454e+03,1.223010e+03
2.846419e+03,1.216733e+03
2.847383e+03,1.212016e+03
2.848347e+03,1.224576e+03
2.849311e+03,1.228146e+03
2.850276e+03,1.218206e+03
2.851240e+03,1.212319e+03
2.852204e+03,1.209542e+03
2.853168e+03,1.194730e+03
2.854133e+03,1.182822e+03
2.855097e+03,1.201954e+03
2.856061e+03,1.214390e+03
2.857025e+03,1.206753e+03
2.857990e+03,1.208570e+03
2.858954e+03,1.229531e+03
2.859918e+03,1.226758e+03
2.860882e+03,1.209151e+03
2.861846e+03,1.188729e+03
2.862811e+03,1.178946e+03
2.863775e+03,1.197361e+03
2.864739e+03,1.211653e+03
2.865703e+03,1.213305e+03
2.866667e+03,1.200829e+03
2.867632e+03,1.183312e+03
2.868596e+03,1.187337e+03
2.869560e+03,1.197272e+03
2.870524e+03,1.198278e+03
2.871489e+03,1.195565e+03
2.872453e+03,1.190065e+03
2.873417e+03,1.187267e+03
2.874381e+03,1.187532e+03
2.875345e+03,1.202137e+03
2.876310e+03,1.218266e+03
2.877274e+03,1.210491e+03
2.878238e+03,1.204496e+03
2.879202e+03,1.209390e+03
2.880167e+03,1.210566e+03
2.881131e+03,1.205110e+03
2.882095e+03,1.189438e+03
2.883059e+03,1.175786e+03
2.884024e+03,1.181009e+03
2.884988e+03,1.195463e+03
2.885952e+03,1.214100e+03
2.886916e+03,1.222674e+03
2.887881e+03,1.217563e+03
2.888845e+03,1.209451e+03
2.889809e+03,1.200345e+03
2.890773e+03,1.187555e+03
2.891738e+03,1.182628e+03
2.892702e+03,1.217742e+03
2.893666e+03,1.229479e+03
2.894630e+03,1.208107e+03
2.895594e+03,1.200409e+03
2.896559e+03,1.206033e+03
2.897523e+03,1.206802e+03
2.898487e+03,1.202979e+03
2.899451e+03,1.188775e+03
2.900416e+03,1.186637e+03
2.901380e+03,1.199115e+03
2.902344e+03,1.195203e+03
2.903308e+03,1.173186e+03
2.904273e+03,1.162609e+03
2.905237e+03,1.164199e+03
2.906201e+03,1.179484e+03
2.907165e+03,1.191664e+03
2.908130e+03,1.193678e+03
2.909094e+03,1.191548e+03
2.910058e+03,1.185966e+03
2.911022e+03,1.177216e+03
2.911987e+03,1.166993e+03
2.912951e+03,1.153233e+03
2.913915e+03,1.152620e+03
2.914879e+03,1.183592e+03
2.915844e+03,1.204868e+03
2.916808e+03,1.211012e+03
2.917772e+03,1.199418e+03
2.918736e+03,1.181755e+03
2.919700e+03,1.173387e+03
2.920665e+03,1.168101e+03
2.921629e+03,1.158893e+03
2.922593e+03,1.168293e+03
2.923557e+03,1.190652e+03
2.924521e+03,1.190938e+03
2.925486e+03,1.178555e+03
2.926450e+03,1.176368e+03
2.927414e+03,1.170392e+03
2.928378e+03,1.150492e+03
2.929343e+03,1.147396e+03
2.930307e+03,1.158462e+03
2.931271e+03,1.157727e+03
2.932235e+03,1.153204e+03
2.933199e+03,1.165566e+03
2.934164e+03,1.166164e+03
2.935128e+03,1.140479e+03
2.936092e+03,1.146078e+03
2.937056e+03,1.180173e+03
2.938021e+03,1.174435e+03
2.938985e+03,1.148717e+03
2.939949e+03,1.129793e+03
2.940913e+03,1.122464e+03
2.941878e+03,1.126922e+03
2.942842e+03,1.138239e+03
2.943806e+03,1.151978e+03
2.944770e+03,1.162271e+03
2.945735e+03,1.165262e+03
2.946699e+03,1.151245e+03
2.947663e+03,1.142763e+03
2.948627e+03,1.145040e+03
2.949592e+03,1.149671e+03
2.950556e+03,1.155243e+03
2.951520e+03,1.155973e+03
2.952484e+03,1.155215e+03
2.953448e+03,1.157227e+03
2.954413e+03,1.161692e+03
2.955377e+03,1.169249e+03
2.956341e+03,1.186785e+03
2.957305e+03,1.209075e+03
2.958270e+03,1.211794e+03
2.959234e+03,1.194112e+03
2.960198e+03,1.158368e+03
2.961162e+03,1.140119e+03
2.962127e+03,1.155635e+03
2.963091e+03,1.150129e+03
2.964055e+03,1.127895e+03
2.965019e+03,1.122183e+03
2.965984e+03,1.128066e+03
2.966948e+03,1.140674e+03
2.967912e+03,1.144149e+03
2.968876e+03,1.128677e+03
2.969841e+03,1.123095e+03
2.970805e+03,1.120789e+03
2.971769e+03,1.107817e+03
2.972733e+03,1.097730e+03
2.973698e+03,1.100220e+03
2.974662e+03,1.111172e+03
2.975626e+03,1.129792e+03
2.976590e+03,1.120064e+03
2.977554e+03,1.106241e+03
2.978519e+03,1.120639e+03
2.979483e+03,1.136674e+03
2.980447e+03,1.138412e+03
2.981411e+03,1.127453e+03
2.982375e+03,1.108717e+03
2.983340e+03,1.116852e+03
2.984304e+03,1.125839e+03
2.985268e+03,1.109665e+03
2.986232e+03,1.090188e+03
2.987197e+03,1.077686e+03
2.988161e+03,1.078842e+03
2.989125e+03,1.089206e+03
2.990089e+03,1.092000e+03
2.991053e+03,1.087706e+03
2.992018e+03,1.075303e+03
2.992982e+03,1.074010e+03
2.993946e+03,1.095656e+03
2.994910e+03,1.107747e+03
2.995875e+03,1.115476e+03
2.996839e+03,1.129120e+03
2.997803e+03,1.130636e+03
2.998767e+03,1.108814e+03
2.999732e+03,1.094340e+03
3.000696e+03,1.094064e+03
3.001660e+03,1.094543e+03
3.002624e+03,1.087192e+03
3.003589e+03,1.064470e+03
3.004553e+03,1.046452e+03
3.005517e+03,1.043019e+03
3.006481e+03,1.056715e+03
3.007446e+03,1.078843e+03
3.008410e+03,1.082725e+03
3.009374e+03,1.080622e+03
3.010338e+03,1.081387e+03
3.011302e+03,1.095722e+03
3.012267e+03,1.124934e+03
3.013231e+03,1.110624e+03
3.014195e+03,1.080659e+03
3.015159e+03,1.091297e+03
3.016124e+03,1.097821e+03
3.017088e+03,1.084158e+03
3.018052e+03,1.076328e+03
3.019016e+03,1.077300e+03
3.019981e+03,1.081589e+03
3.020945e+03,1.083993e+03
3.021909e+03,1.079088e+03
3.022873e+03,1.077834e+03
3.023838e+03,1.081071e+03
3.024802e+03,1.078412e+03
3.025766e+03,1.069924e+03
3.026730e+03,1.048764e+03
3.027695e+03,1.038638e+03
3.028659e+03,1.049607e+03
3.029623e+03,1.066853e+03
3.030587e+03,1.083085e+03
3.031552e+03,1.071597e+03
3.032516e+03,1.055029e+03
3.033480e+03,1.062520e+03
3.034444e+03,1.076938e+03
3.035408e+03,1.092117e+03
3.036373e+03,1.078184e+03
3.037337e+03,1.049727e+03
3.038301e+03,1.056122e+03
3.039265e+03,1.065264e+03
3.040229e+03,1.055231e+03
3.041194e+03,1.056990e+03
3.042158e+03,1.068120e+03
3.043122e+03,1.073418e+03
3.044086e+03,1.078109e+03
3.045051e+03,1.091868e+03
3.046015e+03,1.096015e+03
3.046979e+03,1.084392e+03
3.047943e+03,1.071400e+03
3.048907e+03,1.064350e+03
3.049872e+03,1.073738e+03
3.050836e+03,1.077893e+03
3.051800e+03,1.059194e+03
3.052764e+03,1.058725e+03
3.053729e+03,1.071104e+03
3.054693e+03,1.043767e+03
3.055657e+03,1.025151e+03
3.056621e+03,1.047288e+03
3.057586e+03,1.064649e+03
3.058550e+03,1.063554e+03
3.059514e+03,1.050106e+03
3.060478e+03,1.036767e+03
3.061443e+03,1.039755e+03
3.062407e+03,1.052452e+03
3.063371e+03,1.070089e+03
3.064335e+03,1.064945e+03
3.065300e+03,1.043704e+03
3.066264e+03,1.034392e+03
3.067228e+03,1.033193e+03
3.068192e+03,1.037504e+03
3.069156e+03,1.051025e+03
3.070121e+03,1.067665e+03
3.071085e+03,1.062729e+03
3.072049e+03,1.048500e+03
3.073013e+03,1.035071e+03
3.073978e+03,1.038503e+03
3.074942e+03,1.061938e+03
3.075906e+03,1.075654e+03
3.076870e+03,1.074719e+03
3.077835e+03,1.049217e+03
3.078799e+03,1.038670e+03
3.079763e+03,1.076209e+03
3.080727e+03,1.078429e+03
3.081692e+03,1.052620e+03
3.082656e+03,1.045188e+03
3.083620e+03,1.044178e+03
3.084584e+03,1.041636e+03
3.085549e+03,1.054451e+03
3.086513e+03,1.083922e+03
3.087477e+03,1.063699e+03
3.088441e+03,1.035307e+03
3.089406e+03,1.050480e+03
3.090370e+03,1.053903e+03
3.091334e+03,1.038605e+03
3.092298e+03,1.027269e+03
3.093262e+03,1.024473e+03
3.094227e+03,1.051936e+03
3.095191e+03,1.054766e+03
3.096155e+03,1.010360e+03
3.097119e+03,1.016326e+03
3.098083e+03,1.050316e+03
3.099048e+03,1.055752e+03
3.100012e+03,1.052153e+03
3.100976e+03,1.052787e+03
3.101940e+03,1.062274e+03
3.102905e+03,1.077221e+03
3.103869e+03,1.080385e+03
3.104833e+03,1.069477e+03
3.105797e+03,1.046707e+03
3.106761e+03,1.018808e+03
3.107726e+03,9.910536e+02
3.108690e+03,9.886612e+02
3.109654e+03,1.001371e+03
3.110618e+03,1.024918e+03
3.111583e+03,1.037253e+03
3.112547e+03,1.038229e+03
3.113511e+03,1.043392e+03
3.114475e+03,1.052358e+03
3.115440e+03,1.068132e+03
3.116404e+03,1.070738e+03
3.117368e+03,1.050523e+03
3.118332e+03,1.027545e+03
3.119297e+03,1.014738e+03
3.120261e+03,1.030745e+03
3.121225e+03,1.054373e+03
3.122189e+03,1.074351e+03
3.123154e+03,1.055925e+03
3.124118e+03,1.013761e+03
3.125082e+03,1.025350e+03
3.126046e+03,1.032021e+03
3.127010e+03,1.003670e+03
3.127975e+03,1.003075e+03
3.128939e+03,1.027204e+03
3.129903e+03,1.037009e+03
3.130867e+03,1.037310e+03
3.131832e+03,1.023774e+03
3.132796e+03,1.018288e+03
3.133760e+03,1.022187e+03
3.134724e+03,1.026385e+03
3.135689e+03,1.040291e+03
3.136653e+03,1.075701e+03
3.137617e+03,1.082691e+03
3.138581e+03,1.046831e+03
3.139546e+03,1.047308e+03
3.140510e+03,1.062395e+03
3.141474e+03,1.073875e+03
3.142438e+03,1.068504e+03
3.143403e+03,1.049517e+03
3.144367e+03,1.037867e+03
3.145331e+03,1.037067e+03
3.146295e+03,1.068345e+03
3.147260e+03,1.077238e+03
3.148224e+03,1.047290e+03
3.149188e+03,1.035207e+03
3.150152e+03,1.033827e+03
3.151116e+03,1.027971e+03
3.152081e+03,1.031868e+03
3.153045e+03,1.049848e+03
3.154009e+03,1.038035e+03
3.154973e+03,1.012870e+03
3.155938e+03,1.000988e+03
3.156902e+03,1.017601e+03
3.157866e+03,1.058947e+03
3.158830e+03,1.089839e+03
3.159794e+03,1.102387e+03
3.160759e+03,1.060509e+03
3.161723e+03,1.025969e+03
3.162687e+03,1.042433e+03
3.163651e+03,1.040368e+03
3.164615e+03,1.038302e+03
3.165580e+03,1.073782e+03
3.166544e+03,1.093996e+03
3.167508e+03,1.080137e+03
3.168472e+03,1.056487e+03
3.169437e+03,1.030969e+03
3.170401e+03,1.007007e+03
3.171365e+03,9.992316e+02
3.172329e+03,1.015814e+03
3.173294e+03,1.044805e+03
3.174258e+03,1.068484e+03
3.175222e+03,1.053832e+03
3.176186e+03,1.038235e+03
3.177151e+03,1.047638e+03
3.178115e+03,1.057061e+03
3.179079e+03,1.060809e+03
3.180043e+03,1.042183e+03
3.181008e+03,1.036382e+03
3.181972e+03,1.055378e+03
3.182936e+03,1.042917e+03
3.183900e+03,1.012104e+03
3.184865e+03,1.019189e+03
3.185829e+03,1.036710e+03
3.186793e+03,1.068463e+03
3.187757e+03,1.049541e+03
3.188721e+03,1.009271e+03
3.189686e+03,1.015422e+03
3.190650e+03,1.030813e+03
3.191614e+03,1.037322e+03
3.192578e+03,1.032110e+03
3.193543e+03,1.023088e+03
3.194507e+03,1.032308e+03
3.195471e+03,1.050665e+03
3.196435e+03,1.074667e+03
3.197400e+03,1.084910e+03
3.198364e+03,1.088094e+03
3.199328e+03,1.101646e+03
3.200292e+03,1.096355e+03
